  7.5000000e-002
 -1.3000000e-001
 -4.7000000e-001
 -8.5500000e-001
 -1.2100000e+000
 -1.5400000e+000
 -1.8900000e+000
 -2.2100000e+000
 -2.4450000e+000
 -2.5600000e+000
 -2.5100000e+000
 -2.2000000e+000
 -1.7850000e+000
 -1.4100000e+000
 -1.1400000e+000
 -9.5500000e-001
 -7.8000000e-001
 -7.1000000e-001
 -6.1000000e-001
 -5.5000000e-001
 -5.1000000e-001
 -4.8000000e-001
 -4.2500000e-001
 -4.2500000e-001
 -3.9000000e-001
 -3.7000000e-001
 -3.8000000e-001
 -3.6500000e-001
 -3.2000000e-001
 -3.2000000e-001
 -3.3500000e-001
 -3.4000000e-001
 -3.3000000e-001
 -3.2500000e-001
 -3.1000000e-001
 -3.1000000e-001
 -3.0000000e-001
 -2.7500000e-001
 -2.6500000e-001
 -2.2500000e-001
 -2.1000000e-001
 -1.9500000e-001
 -1.7500000e-001
 -1.6500000e-001
 -1.4000000e-001
 -1.2000000e-001
 -1.1500000e-001
 -7.0000000e-002
 -5.5000000e-002
 -5.0000000e-002
 -3.0000000e-002
 -2.5000000e-002
 -5.0000000e-003
 -5.0000000e-003
 -2.0000000e-002
 -1.5000000e-002
  1.5000000e-002
  0.0000000e+000
  1.5000000e-002
  0.0000000e+000
 -4.0000000e-002
 -4.5000000e-002
 -6.5000000e-002
 -6.5000000e-002
 -9.5000000e-002
 -1.1500000e-001
 -1.3000000e-001
 -1.3500000e-001
 -1.5000000e-001
 -1.9000000e-001
 -2.1000000e-001
 -2.5000000e-001
 -2.7500000e-001
 -3.0500000e-001
 -3.1500000e-001
 -3.3000000e-001
 -3.4500000e-001
 -3.6500000e-001
 -3.7000000e-001
 -3.8000000e-001
 -3.8000000e-001
 -3.7500000e-001
 -3.8500000e-001
 -4.0000000e-001
 -4.0500000e-001
 -3.9000000e-001
 -3.8500000e-001
 -4.0500000e-001
 -3.9500000e-001
 -3.7500000e-001
 -3.6000000e-001
 -3.6500000e-001
 -3.2500000e-001
 -2.7000000e-001
 -2.5000000e-001
 -2.4000000e-001
 -2.3500000e-001
 -2.2500000e-001
 -2.2000000e-001
 -2.4000000e-001
 -3.2000000e-001
 -3.4500000e-001
 -3.5000000e-001
 -3.6500000e-001
 -3.9000000e-001
 -4.1500000e-001
 -4.2500000e-001
 -4.3500000e-001
 -4.3000000e-001
 -4.1000000e-001
 -4.2500000e-001
 -4.2500000e-001
 -4.2000000e-001
 -4.2000000e-001
 -4.4500000e-001
 -4.5000000e-001
 -4.6000000e-001
 -4.5000000e-001
 -4.6500000e-001
 -4.6500000e-001
 -4.7500000e-001
 -4.8000000e-001
 -4.4500000e-001
 -4.7500000e-001
 -4.6500000e-001
 -4.8000000e-001
 -4.9000000e-001
 -4.8500000e-001
 -5.0000000e-001
 -5.0000000e-001
 -5.0000000e-001
 -4.7500000e-001
 -4.8500000e-001
 -4.7000000e-001
 -4.5500000e-001
 -4.4000000e-001
 -4.2000000e-001
 -4.2500000e-001
 -4.0000000e-001
 -3.8000000e-001
 -3.8500000e-001
 -2.9000000e-001
 -1.5000000e-001
 -6.0000000e-002
 -1.3500000e-001
 -3.6500000e-001
 -7.1500000e-001
 -1.0800000e+000
 -1.4300000e+000
 -1.7850000e+000
 -2.0500000e+000
 -2.2800000e+000
 -2.4150000e+000
 -2.4400000e+000
 -2.2550000e+000
 -1.9200000e+000
 -1.5650000e+000
 -1.3100000e+000
 -1.1150000e+000
 -9.7000000e-001
 -8.7000000e-001
 -7.9500000e-001
 -7.0000000e-001
 -6.5500000e-001
 -6.3500000e-001
 -5.6500000e-001
 -5.7000000e-001
 -5.6000000e-001
 -5.4500000e-001
 -4.9500000e-001
 -5.1500000e-001
 -4.9000000e-001
 -4.8000000e-001
 -4.6000000e-001
 -4.7000000e-001
 -4.5000000e-001
 -4.5000000e-001
 -4.2500000e-001
 -4.3500000e-001
 -4.2000000e-001
 -4.1500000e-001
 -4.0000000e-001
 -3.8500000e-001
 -3.7000000e-001
 -3.6000000e-001
 -3.4000000e-001
 -3.1000000e-001
 -2.8000000e-001
 -2.6000000e-001
 -2.4000000e-001
 -2.4000000e-001
 -2.0000000e-001
 -2.3000000e-001
 -2.0500000e-001
 -1.9500000e-001
 -1.7500000e-001
 -1.5500000e-001
 -1.5500000e-001
 -1.4500000e-001
 -1.3500000e-001
 -1.4500000e-001
 -1.4000000e-001
 -1.0000000e-001
 -1.2000000e-001
 -1.3000000e-001
 -1.5500000e-001
 -1.6500000e-001
 -1.9000000e-001
 -2.1000000e-001
 -2.3000000e-001
 -2.5500000e-001
 -2.7500000e-001
 -3.0000000e-001
 -3.1500000e-001
 -3.3000000e-001
 -3.4500000e-001
 -3.7000000e-001
 -3.7500000e-001
 -4.3000000e-001
 -4.1000000e-001
 -4.2500000e-001
 -4.2000000e-001
 -4.4000000e-001
 -4.6000000e-001
 -4.7000000e-001
 -4.7500000e-001
 -4.7500000e-001
 -4.8000000e-001
 -4.8000000e-001
 -4.7000000e-001
 -4.6500000e-001
 -4.7000000e-001
 -4.8000000e-001
 -4.9000000e-001
 -4.8500000e-001
 -4.5500000e-001
 -4.5000000e-001
 -4.2000000e-001
 -3.9000000e-001
 -3.6000000e-001
 -3.4500000e-001
 -3.4000000e-001
 -3.4500000e-001
 -3.9000000e-001
 -4.4500000e-001
 -4.7000000e-001
 -5.0500000e-001
 -5.1500000e-001
 -5.3000000e-001
 -5.2000000e-001
 -5.1500000e-001
 -5.2000000e-001
 -5.1500000e-001
 -5.2500000e-001
 -5.2000000e-001
 -5.2000000e-001
 -5.3000000e-001
 -5.2500000e-001
 -5.1000000e-001
 -5.2000000e-001
 -5.2500000e-001
 -5.1000000e-001
 -5.1500000e-001
 -5.2500000e-001
 -5.2500000e-001
 -5.2500000e-001
 -5.4500000e-001
 -5.4500000e-001
 -5.2500000e-001
 -5.1500000e-001
 -5.2500000e-001
 -5.4000000e-001
 -5.1000000e-001
 -5.2000000e-001
 -5.5000000e-001
 -5.0500000e-001
 -4.9000000e-001
 -4.9500000e-001
 -4.9500000e-001
 -4.6500000e-001
 -4.6000000e-001
 -4.5000000e-001
 -4.2500000e-001
 -4.2500000e-001
 -4.0500000e-001
 -3.6500000e-001
 -2.6000000e-001
 -1.4500000e-001
 -1.0000000e-001
 -2.2000000e-001
 -4.6000000e-001
 -7.9500000e-001
 -1.1150000e+000
 -1.4400000e+000
 -1.7850000e+000
 -2.0000000e+000
 -2.2150000e+000
 -2.3900000e+000
 -2.4500000e+000
 -2.2750000e+000
 -1.9450000e+000
 -1.5900000e+000
 -1.3250000e+000
 -1.1100000e+000
 -9.8500000e-001
 -8.6000000e-001
 -7.7500000e-001
 -7.0000000e-001
 -6.4500000e-001
 -6.1500000e-001
 -5.8000000e-001
 -5.7000000e-001
 -5.4500000e-001
 -5.1500000e-001
 -5.1500000e-001
 -5.0500000e-001
 -4.9000000e-001
 -4.8000000e-001
 -4.6500000e-001
 -4.6500000e-001
 -4.7500000e-001
 -4.8000000e-001
 -4.5000000e-001
 -4.5000000e-001
 -4.3500000e-001
 -4.2500000e-001
 -4.1000000e-001
 -4.0500000e-001
 -3.9000000e-001
 -3.6500000e-001
 -3.5500000e-001
 -3.3500000e-001
 -3.2000000e-001
 -2.9500000e-001
 -2.8500000e-001
 -2.7000000e-001
 -2.6500000e-001
 -2.4000000e-001
 -2.2000000e-001
 -2.1000000e-001
 -1.9500000e-001
 -1.8000000e-001
 -1.5500000e-001
 -1.6500000e-001
 -1.5500000e-001
 -1.5500000e-001
 -1.7000000e-001
 -1.7500000e-001
 -1.7000000e-001
 -1.6500000e-001
 -2.0500000e-001
 -2.0000000e-001
 -2.0500000e-001
 -2.0500000e-001
 -2.4000000e-001
 -2.4500000e-001
 -2.6500000e-001
 -3.1000000e-001
 -3.3000000e-001
 -3.4500000e-001
 -3.5000000e-001
 -3.7500000e-001
 -3.7500000e-001
 -4.1500000e-001
 -4.6000000e-001
 -4.3500000e-001
 -4.5500000e-001
 -4.9000000e-001
 -5.2000000e-001
 -5.2000000e-001
 -5.3000000e-001
 -5.1000000e-001
 -5.0000000e-001
 -5.1500000e-001
 -5.3500000e-001
 -5.1500000e-001
 -4.9500000e-001
 -4.8500000e-001
 -4.5000000e-001
 -4.4000000e-001
 -4.2000000e-001
 -4.0500000e-001
 -3.6500000e-001
 -3.3000000e-001
 -3.3000000e-001
 -3.1000000e-001
 -3.0500000e-001
 -3.0500000e-001
 -3.5000000e-001
 -3.9500000e-001
 -4.2500000e-001
 -4.6500000e-001
 -4.7000000e-001
 -4.6000000e-001
 -4.5500000e-001
 -4.7000000e-001
 -4.5000000e-001
 -4.5000000e-001
 -4.6000000e-001
 -4.5500000e-001
 -4.5000000e-001
 -4.6000000e-001
 -4.6000000e-001
 -4.6500000e-001
 -4.7000000e-001
 -4.8500000e-001
 -4.8000000e-001
 -4.7500000e-001
 -4.8500000e-001
 -4.6500000e-001
 -5.0000000e-001
 -5.1000000e-001
 -4.9500000e-001
 -5.0500000e-001
 -5.0000000e-001
 -4.7500000e-001
 -4.7000000e-001
 -4.8500000e-001
 -4.8000000e-001
 -4.7000000e-001
 -4.6500000e-001
 -4.5500000e-001
 -4.7000000e-001
 -4.5000000e-001
 -4.3500000e-001
 -4.2000000e-001
 -4.0000000e-001
 -3.9000000e-001
 -3.6000000e-001
 -3.0500000e-001
 -2.2000000e-001
 -9.5000000e-002
 -1.0000000e-001
 -2.8000000e-001
 -6.6500000e-001
 -1.0150000e+000
 -1.3300000e+000
 -1.6900000e+000
 -2.0300000e+000
 -2.3050000e+000
 -2.5300000e+000
 -2.6350000e+000
 -2.5650000e+000
 -2.2650000e+000
 -1.8900000e+000
 -1.5200000e+000
 -1.2400000e+000
 -1.1000000e+000
 -9.7500000e-001
 -8.5000000e-001
 -7.4000000e-001
 -6.8500000e-001
 -6.2000000e-001
 -5.8500000e-001
 -5.6500000e-001
 -5.3500000e-001
 -5.3000000e-001
 -4.9000000e-001
 -4.8500000e-001
 -4.6500000e-001
 -4.5000000e-001
 -4.3000000e-001
 -4.4000000e-001
 -4.3500000e-001
 -4.4500000e-001
 -4.3000000e-001
 -4.1500000e-001
 -3.8500000e-001
 -3.8500000e-001
 -3.7000000e-001
 -3.5000000e-001
 -3.3000000e-001
 -3.1000000e-001
 -2.7000000e-001
 -2.3000000e-001
 -2.2000000e-001
 -2.0000000e-001
 -1.7000000e-001
 -1.6000000e-001
 -1.2000000e-001
 -1.1000000e-001
 -9.0000000e-002
 -7.0000000e-002
 -3.5000000e-002
 -3.0000000e-002
 -5.5000000e-002
 -3.0000000e-002
 -3.0000000e-002
 -3.5000000e-002
 -1.0000000e-002
 -1.0000000e-002
 -1.5000000e-002
 -3.5000000e-002
 -1.0000000e-002
 -4.0000000e-002
 -5.5000000e-002
 -1.0000000e-001
 -1.0500000e-001
 -1.3000000e-001
 -1.7500000e-001
 -1.9000000e-001
 -2.1500000e-001
 -2.5000000e-001
 -2.5500000e-001
 -2.7500000e-001
 -3.0000000e-001
 -3.0000000e-001
 -3.1000000e-001
 -3.4500000e-001
 -3.4500000e-001
 -3.6500000e-001
 -3.8000000e-001
 -3.7000000e-001
 -3.9500000e-001
 -4.0000000e-001
 -4.0000000e-001
 -3.9500000e-001
 -4.0500000e-001
 -3.9000000e-001
 -4.1500000e-001
 -3.9500000e-001
 -3.8500000e-001
 -3.7000000e-001
 -3.5500000e-001
 -3.3000000e-001
 -3.0000000e-001
 -2.4500000e-001
 -2.4000000e-001
 -2.4500000e-001
 -2.2500000e-001
 -2.6000000e-001
 -2.4500000e-001
 -2.8000000e-001
 -3.3000000e-001
 -3.3500000e-001
 -3.7000000e-001
 -4.0000000e-001
 -4.1500000e-001
 -4.3000000e-001
 -4.1500000e-001
 -4.4000000e-001
 -4.3500000e-001
 -4.3000000e-001
 -4.2500000e-001
 -4.5000000e-001
 -4.6000000e-001
 -4.6500000e-001
 -4.7000000e-001
 -4.6000000e-001
 -4.6000000e-001
 -4.6000000e-001
 -4.4500000e-001
 -4.6500000e-001
 -4.8000000e-001
 -4.7000000e-001
 -4.9000000e-001
 -4.7500000e-001
 -4.8000000e-001
 -4.8500000e-001
 -4.8000000e-001
 -4.6500000e-001
 -4.6500000e-001
 -4.6500000e-001
 -4.7500000e-001
 -4.8000000e-001
 -4.6500000e-001
 -4.3000000e-001
 -3.9500000e-001
 -3.7500000e-001
 -3.8000000e-001
 -3.8000000e-001
 -3.4000000e-001
 -2.9000000e-001
 -1.5000000e-001
 -4.0000000e-002
 -1.3500000e-001
 -4.2500000e-001
 -8.3000000e-001
 -1.2100000e+000
 -1.5600000e+000
 -1.9300000e+000
 -2.2650000e+000
 -2.5250000e+000
 -2.7000000e+000
 -2.7550000e+000
 -2.6250000e+000
 -2.2550000e+000
 -1.8300000e+000
 -1.4950000e+000
 -1.2300000e+000
 -1.0700000e+000
 -9.3500000e-001
 -8.1500000e-001
 -7.5000000e-001
 -6.8000000e-001
 -6.5000000e-001
 -6.1500000e-001
 -5.8000000e-001
 -5.6000000e-001
 -5.4000000e-001
 -5.2000000e-001
 -5.2000000e-001
 -5.1000000e-001
 -5.0500000e-001
 -4.9500000e-001
 -4.8500000e-001
 -5.0000000e-001
 -5.1000000e-001
 -4.7500000e-001
 -4.6500000e-001
 -4.5000000e-001
 -4.5000000e-001
 -4.2500000e-001
 -4.1000000e-001
 -3.7500000e-001
 -3.8000000e-001
 -3.5500000e-001
 -3.2000000e-001
 -2.9500000e-001
 -3.1000000e-001
 -2.9500000e-001
 -2.5000000e-001
 -2.3000000e-001
 -2.1500000e-001
 -1.9500000e-001
 -2.1500000e-001
 -1.9500000e-001
 -1.9000000e-001
 -1.8500000e-001
 -1.8000000e-001
 -1.9000000e-001
 -1.5000000e-001
 -1.9500000e-001
 -1.8000000e-001
 -1.6500000e-001
 -1.9500000e-001
 -2.3000000e-001
 -2.2500000e-001
 -2.4000000e-001
 -2.6500000e-001
 -2.7000000e-001
 -2.8000000e-001
 -3.2000000e-001
 -3.4000000e-001
 -3.5500000e-001
 -3.9000000e-001
 -3.8500000e-001
 -4.1500000e-001
 -4.3500000e-001
 -4.5500000e-001
 -4.6000000e-001
 -4.9000000e-001
 -5.0500000e-001
 -5.1500000e-001
 -5.3500000e-001
 -5.2500000e-001
 -5.3000000e-001
 -5.4500000e-001
 -5.3500000e-001
 -5.3500000e-001
 -5.3500000e-001
 -5.3000000e-001
 -5.2000000e-001
 -5.3000000e-001
 -5.0500000e-001
 -4.6500000e-001
 -4.6000000e-001
 -4.4500000e-001
 -4.0000000e-001
 -3.7500000e-001
 -3.6500000e-001
 -3.4000000e-001
 -3.4500000e-001
 -3.5000000e-001
 -3.8500000e-001
 -4.0500000e-001
 -4.5000000e-001
 -4.8000000e-001
 -4.9500000e-001
 -5.1500000e-001
 -5.0500000e-001
 -5.0500000e-001
 -5.2500000e-001
 -5.1000000e-001
 -5.1000000e-001
 -5.1500000e-001
 -5.1500000e-001
 -5.2000000e-001
 -5.0000000e-001
 -5.0500000e-001
 -5.4000000e-001
 -5.2500000e-001
 -5.1000000e-001
 -5.3000000e-001
 -5.2500000e-001
 -5.4500000e-001
 -5.4000000e-001
 -5.3000000e-001
 -5.5000000e-001
 -5.5000000e-001
 -5.3000000e-001
 -5.6500000e-001
 -5.6000000e-001
 -5.4500000e-001
 -5.1000000e-001
 -5.4000000e-001
 -5.4000000e-001
 -5.2500000e-001
 -5.1000000e-001
 -5.3500000e-001
 -4.9500000e-001
 -4.7500000e-001
 -4.7000000e-001
 -4.7000000e-001
 -4.5000000e-001
 -3.8000000e-001
 -2.7000000e-001
 -1.5500000e-001
 -1.2500000e-001
 -2.5000000e-001
 -5.6000000e-001
 -9.1000000e-001
 -1.2400000e+000
 -1.6050000e+000
 -1.9050000e+000
 -2.1850000e+000
 -2.3900000e+000
 -2.5000000e+000
 -2.4700000e+000
 -2.2250000e+000
 -1.8700000e+000
 -1.5300000e+000
 -1.2550000e+000
 -1.0700000e+000
 -9.4000000e-001
 -8.5500000e-001
 -7.7000000e-001
 -7.2500000e-001
 -6.5500000e-001
 -6.2500000e-001
 -6.1000000e-001
 -5.8500000e-001
 -5.7500000e-001
 -5.5000000e-001
 -5.3000000e-001
 -5.3500000e-001
 -5.2500000e-001
 -5.2500000e-001
 -5.1000000e-001
 -5.1500000e-001
 -4.9500000e-001
 -5.1500000e-001
 -5.0000000e-001
 -4.7000000e-001
 -4.6000000e-001
 -4.5500000e-001
 -4.4500000e-001
 -4.2000000e-001
 -4.0500000e-001
 -3.9000000e-001
 -3.9000000e-001
 -3.6500000e-001
 -3.5000000e-001
 -3.2000000e-001
 -2.7000000e-001
 -2.7000000e-001
 -2.4500000e-001
 -2.1500000e-001
 -2.1500000e-001
 -2.0500000e-001
 -1.8500000e-001
 -1.8000000e-001
 -1.8000000e-001
 -1.9000000e-001
 -1.5000000e-001
 -1.8000000e-001
 -1.5500000e-001
 -1.8000000e-001
 -1.8000000e-001
 -1.8500000e-001
 -1.9000000e-001
 -2.2000000e-001
 -2.4500000e-001
 -2.5500000e-001
 -2.6000000e-001
 -2.8000000e-001
 -3.1500000e-001
 -3.4500000e-001
 -3.5500000e-001
 -3.8500000e-001
 -3.8500000e-001
 -4.1000000e-001
 -4.3000000e-001
 -4.5000000e-001
 -4.8000000e-001
 -4.8500000e-001
 -4.6500000e-001
 -4.9000000e-001
 -4.6500000e-001
 -4.8000000e-001
 -4.9000000e-001
 -4.9500000e-001
 -5.1000000e-001
 -4.9500000e-001
 -4.9000000e-001
 -4.8500000e-001
 -4.9000000e-001
 -4.9000000e-001
 -4.6500000e-001
 -4.7000000e-001
 -4.2500000e-001
 -3.9000000e-001
 -3.9500000e-001
 -3.8000000e-001
 -3.8000000e-001
 -3.5500000e-001
 -3.6500000e-001
 -3.8500000e-001
 -4.3500000e-001
 -5.0000000e-001
 -5.1000000e-001
 -4.9500000e-001
 -5.2000000e-001
 -5.2500000e-001
 -5.5000000e-001
 -5.3000000e-001
 -5.4000000e-001
 -5.4000000e-001
 -5.3500000e-001
 -5.3000000e-001
 -5.2000000e-001
 -5.2000000e-001
 -5.1500000e-001
 -5.5000000e-001
 -5.4000000e-001
 -5.2500000e-001
 -5.3500000e-001
 -5.2000000e-001
 -5.1500000e-001
 -5.5000000e-001
 -5.3000000e-001
 -5.1500000e-001
 -4.9000000e-001
 -5.1000000e-001
 -5.4000000e-001
 -5.5000000e-001
 -5.4000000e-001
 -5.3500000e-001
 -5.5000000e-001
 -5.3500000e-001
 -5.2500000e-001
 -5.3000000e-001
 -5.3500000e-001
 -5.1500000e-001
 -4.6500000e-001
 -4.5500000e-001
 -4.3000000e-001
 -4.2500000e-001
 -4.2500000e-001
 -3.9000000e-001
 -2.9500000e-001
 -1.6000000e-001
 -1.2000000e-001
 -2.3000000e-001
 -5.2500000e-001
 -8.5500000e-001
 -1.1800000e+000
 -1.4950000e+000
 -1.8200000e+000
 -2.0750000e+000
 -2.2750000e+000
 -2.4400000e+000
 -2.5050000e+000
 -2.3250000e+000
 -1.9600000e+000
 -1.6300000e+000
 -1.3350000e+000
 -1.1550000e+000
 -1.0150000e+000
 -9.1000000e-001
 -8.1000000e-001
 -7.6000000e-001
 -7.0500000e-001
 -6.7500000e-001
 -6.2000000e-001
 -5.9500000e-001
 -5.7500000e-001
 -5.4500000e-001
 -5.4500000e-001
 -5.2000000e-001
 -5.0500000e-001
 -5.1500000e-001
 -4.8000000e-001
 -4.7000000e-001
 -4.9000000e-001
 -4.6500000e-001
 -4.5000000e-001
 -4.5000000e-001
 -4.2500000e-001
 -4.1000000e-001
 -3.8500000e-001
 -3.2500000e-001
 -3.4000000e-001
 -3.5000000e-001
 -3.2000000e-001
 -3.1000000e-001
 -3.0500000e-001
 -2.6500000e-001
 -2.6000000e-001
 -2.4000000e-001
 -2.3000000e-001
 -1.8000000e-001
 -1.6500000e-001
 -1.5500000e-001
 -1.7000000e-001
 -1.7000000e-001
 -1.4000000e-001
 -1.0000000e-001
 -9.5000000e-002
 -1.3000000e-001
 -1.0500000e-001
 -1.0000000e-001
 -1.3000000e-001
 -1.3000000e-001
 -1.3000000e-001
 -1.2500000e-001
 -1.6000000e-001
 -1.6000000e-001
 -1.9000000e-001
 -2.2500000e-001
 -2.2500000e-001
 -2.4500000e-001
 -3.0500000e-001
 -3.1500000e-001
 -3.2000000e-001
 -3.4000000e-001
 -3.7500000e-001
 -3.8500000e-001
 -3.9500000e-001
 -3.9000000e-001
 -4.0000000e-001
 -4.3000000e-001
 -4.5500000e-001
 -4.1500000e-001
 -4.4000000e-001
 -4.2000000e-001
 -4.4000000e-001
 -4.2500000e-001
 -4.2000000e-001
 -4.2500000e-001
 -4.1500000e-001
 -4.0000000e-001
 -3.8000000e-001
 -3.4000000e-001
 -3.1500000e-001
 -2.8000000e-001
 -2.4500000e-001
 -2.3500000e-001
 -2.2500000e-001
 -2.2000000e-001
 -2.3000000e-001
 -2.3000000e-001
 -2.7500000e-001
 -3.1000000e-001
 -3.4000000e-001
 -3.7500000e-001
 -3.8500000e-001
 -3.9000000e-001
 -4.0000000e-001
 -4.1000000e-001
 -3.7500000e-001
 -3.8000000e-001
 -3.8500000e-001
 -3.6000000e-001
 -3.7000000e-001
 -3.6000000e-001
 -3.9000000e-001
 -3.9000000e-001
 -4.1000000e-001
 -3.9500000e-001
 -4.0000000e-001
 -3.9000000e-001
 -3.9500000e-001
 -3.8000000e-001
 -4.0500000e-001
 -4.1000000e-001
 -4.3000000e-001
 -4.1500000e-001
 -4.0500000e-001
 -4.0500000e-001
 -4.0500000e-001
 -4.0000000e-001
 -4.1000000e-001
 -3.9000000e-001
 -3.9000000e-001
 -3.9500000e-001
 -3.7000000e-001
 -3.7000000e-001
 -3.4500000e-001
 -3.1500000e-001
 -2.8000000e-001
 -2.9000000e-001
 -2.8000000e-001
 -2.2000000e-001
 -6.0000000e-002
  0.0000000e+000
 -1.0000000e-001
 -4.0000000e-001
 -7.7500000e-001
 -1.1250000e+000
 -1.4600000e+000
 -1.8300000e+000
 -2.1500000e+000
 -2.4050000e+000
 -2.5800000e+000
 -2.5800000e+000
 -2.3750000e+000
 -2.0200000e+000
 -1.6250000e+000
 -1.3350000e+000
 -1.1000000e+000
 -9.6000000e-001
 -8.3500000e-001
 -7.1500000e-001
 -6.2000000e-001
 -5.5500000e-001
 -5.0500000e-001
 -4.7500000e-001
 -4.6000000e-001
 -4.6000000e-001
 -4.4500000e-001
 -4.1500000e-001
 -4.0000000e-001
 -3.7500000e-001
 -3.8500000e-001
 -3.8500000e-001
 -3.4500000e-001
 -3.4000000e-001
 -3.1000000e-001
 -3.0500000e-001
 -3.2000000e-001
 -3.0000000e-001
 -2.9500000e-001
 -2.6500000e-001
 -2.4000000e-001
 -2.3500000e-001
 -2.3000000e-001
 -2.0500000e-001
 -1.9500000e-001
 -1.7000000e-001
 -1.4500000e-001
 -1.0500000e-001
 -9.0000000e-002
 -6.0000000e-002
 -5.0000000e-002
 -5.5000000e-002
 -4.0000000e-002
 -2.5000000e-002
  0.0000000e+000
 -5.0000000e-003
 -2.0000000e-002
 -1.0000000e-002
  0.0000000e+000
  0.0000000e+000
 -1.0000000e-002
 -5.0000000e-003
 -2.5000000e-002
 -3.0000000e-002
 -5.5000000e-002
 -8.0000000e-002
 -8.5000000e-002
 -1.0500000e-001
 -1.3000000e-001
 -1.6500000e-001
 -1.7000000e-001
 -2.0500000e-001
 -2.5000000e-001
 -2.5500000e-001
 -2.8500000e-001
 -3.0500000e-001
 -3.2500000e-001
 -3.5000000e-001
 -3.7000000e-001
 -3.5500000e-001
 -3.6000000e-001
 -3.6500000e-001
 -3.6000000e-001
 -3.7000000e-001
 -3.7000000e-001
 -3.8500000e-001
 -3.7500000e-001
 -3.8000000e-001
 -3.9000000e-001
 -3.9000000e-001
 -3.6500000e-001
 -3.3500000e-001
 -3.1000000e-001
 -2.8000000e-001
 -2.9000000e-001
 -2.7000000e-001
 -2.5500000e-001
 -2.2500000e-001
 -2.3500000e-001
 -2.3000000e-001
 -2.4000000e-001
 -2.9000000e-001
 -3.2000000e-001
 -3.5500000e-001
 -3.9000000e-001
 -4.2500000e-001
 -4.0000000e-001
 -4.0500000e-001
 -4.1000000e-001
 -4.0000000e-001
 -4.1500000e-001
 -4.1500000e-001
 -4.0500000e-001
 -4.1000000e-001
 -4.1500000e-001
 -4.4500000e-001
 -4.5000000e-001
 -4.3000000e-001
 -4.4500000e-001
 -4.2500000e-001
 -4.3000000e-001
 -4.5500000e-001
 -4.6500000e-001
 -4.6500000e-001
 -4.5500000e-001
 -4.5000000e-001
 -4.3000000e-001
 -4.6000000e-001
 -4.4000000e-001
 -4.3500000e-001
 -4.4000000e-001
 -4.3000000e-001
 -4.2500000e-001
 -4.6000000e-001
 -4.5000000e-001
 -4.6000000e-001
 -4.1000000e-001
 -3.6500000e-001
 -3.3500000e-001
 -3.3500000e-001
 -3.3000000e-001
 -3.1000000e-001
 -1.7500000e-001
 -5.5000000e-002
 -6.0000000e-002
 -2.6000000e-001
 -6.0500000e-001
 -9.7500000e-001
 -1.3200000e+000
 -1.7000000e+000
 -2.0350000e+000
 -2.3650000e+000
 -2.5600000e+000
 -2.6550000e+000
 -2.6000000e+000
 -2.2900000e+000
 -1.9000000e+000
 -1.5200000e+000
 -1.2850000e+000
 -1.0950000e+000
 -9.4500000e-001
 -8.3000000e-001
 -7.4000000e-001
 -6.7500000e-001
 -6.1500000e-001
 -5.7000000e-001
 -5.4500000e-001
 -5.3000000e-001
 -4.9000000e-001
 -4.9500000e-001
 -4.7500000e-001
 -4.9500000e-001
 -4.8000000e-001
 -5.0500000e-001
 -5.0500000e-001
 -4.8500000e-001
 -4.7000000e-001
 -4.3500000e-001
 -4.3000000e-001
 -4.0000000e-001
 -3.9500000e-001
 -3.8500000e-001
 -3.6000000e-001
 -3.4000000e-001
 -2.9000000e-001
 -3.1000000e-001
 -2.9000000e-001
 -2.4500000e-001
 -2.3500000e-001
 -2.2000000e-001
 -1.9500000e-001
 -1.7500000e-001
 -1.6500000e-001
 -1.3500000e-001
 -1.3000000e-001
 -1.0500000e-001
 -9.5000000e-002
 -1.1000000e-001
 -8.0000000e-002
 -8.5000000e-002
 -1.0500000e-001
 -8.0000000e-002
 -9.0000000e-002
 -8.0000000e-002
 -1.0500000e-001
 -1.3000000e-001
 -1.6000000e-001
 -1.4500000e-001
 -1.8000000e-001
 -2.0500000e-001
 -2.0000000e-001
 -2.2500000e-001
 -2.3500000e-001
 -2.7500000e-001
 -2.9000000e-001
 -3.3500000e-001
 -3.5500000e-001
 -3.7500000e-001
 -4.1000000e-001
 -4.2000000e-001
 -4.1500000e-001
 -4.2000000e-001
 -4.2500000e-001
 -4.2500000e-001
 -4.1000000e-001
 -4.2500000e-001
 -4.3500000e-001
 -4.4500000e-001
 -4.5500000e-001
 -4.4500000e-001
 -4.1000000e-001
 -4.0000000e-001
 -4.2500000e-001
 -4.4000000e-001
 -4.0500000e-001
 -3.9000000e-001
 -3.5000000e-001
 -2.5500000e-001
 -1.7500000e-001
 -1.8000000e-001
 -2.3000000e-001
 -2.9000000e-001
 -3.1000000e-001
 -3.1500000e-001
 -3.1500000e-001
 -3.4500000e-001
 -3.4000000e-001
 -4.1000000e-001
 -4.4500000e-001
 -4.7000000e-001
 -5.0000000e-001
 -4.9500000e-001
 -4.9000000e-001
 -4.4000000e-001
 -4.5000000e-001
 -4.3000000e-001
 -4.2500000e-001
 -4.2000000e-001
 -4.5000000e-001
 -4.7000000e-001
 -4.7000000e-001
 -4.5500000e-001
 -4.4500000e-001
 -4.2000000e-001
 -4.1500000e-001
 -4.5000000e-001
 -4.3500000e-001
 -4.4000000e-001
 -4.6000000e-001
 -4.7500000e-001
 -4.6000000e-001
 -4.5500000e-001
 -4.5000000e-001
 -4.6500000e-001
 -4.8500000e-001
 -4.6500000e-001
 -4.9000000e-001
 -4.6500000e-001
 -4.4500000e-001
 -4.1000000e-001
 -3.9500000e-001
 -3.6500000e-001
 -3.8000000e-001
 -3.6500000e-001
 -3.2000000e-001
 -2.3000000e-001
 -1.2000000e-001
 -3.5000000e-002
 -1.3500000e-001
 -3.9000000e-001
 -7.4500000e-001
 -1.0700000e+000
 -1.4300000e+000
 -1.7600000e+000
 -2.0450000e+000
 -2.3050000e+000
 -2.4350000e+000
 -2.4350000e+000
 -2.2150000e+000
 -1.8450000e+000
 -1.4900000e+000
 -1.2350000e+000
 -1.0300000e+000
 -9.0500000e-001
 -8.0000000e-001
 -7.2000000e-001
 -6.7000000e-001
 -6.2500000e-001
 -5.8000000e-001
 -5.7500000e-001
 -5.9000000e-001
 -5.7000000e-001
 -5.7500000e-001
 -5.4000000e-001
 -5.1000000e-001
 -4.9000000e-001
 -4.7000000e-001
 -4.9000000e-001
 -4.7500000e-001
 -4.5500000e-001
 -4.6500000e-001
 -4.6000000e-001
 -4.5000000e-001
 -4.2500000e-001
 -3.9000000e-001
 -3.4000000e-001
 -3.3500000e-001
 -3.5000000e-001
 -3.8000000e-001
 -4.0500000e-001
 -3.7000000e-001
 -3.3000000e-001
 -3.1000000e-001
 -2.6500000e-001
 -2.2500000e-001
 -1.9000000e-001
 -1.9000000e-001
 -1.8500000e-001
 -2.2000000e-001
 -2.0500000e-001
 -2.0500000e-001
 -1.8500000e-001
 -1.9500000e-001
 -1.6000000e-001
 -1.6500000e-001
 -1.6000000e-001
 -1.5000000e-001
 -1.4000000e-001
 -1.2500000e-001
 -1.4000000e-001
 -1.6000000e-001
 -1.8500000e-001
 -1.9000000e-001
 -2.0500000e-001
 -2.2000000e-001
 -2.4000000e-001
 -2.6000000e-001
 -3.0500000e-001
 -3.0500000e-001
 -3.1500000e-001
 -3.4000000e-001
 -3.8000000e-001
 -4.6000000e-001
 -4.9500000e-001
 -4.9500000e-001
 -4.9500000e-001
 -5.2000000e-001
 -4.9500000e-001
 -4.8000000e-001
 -4.9500000e-001
 -5.1000000e-001
 -4.8500000e-001
 -4.8500000e-001
 -4.7500000e-001
 -4.6500000e-001
 -4.7500000e-001
 -4.3000000e-001
 -4.3000000e-001
 -4.4000000e-001
 -4.3500000e-001
 -4.3500000e-001
 -4.1000000e-001
 -4.3000000e-001
 -4.3000000e-001
 -4.2000000e-001
 -4.1500000e-001
 -3.9500000e-001
 -4.2000000e-001
 -4.6000000e-001
 -4.8000000e-001
 -4.8000000e-001
 -5.0500000e-001
 -5.2000000e-001
 -5.2500000e-001
 -5.2500000e-001
 -4.8500000e-001
 -4.9500000e-001
 -5.2500000e-001
 -5.6000000e-001
 -5.7000000e-001
 -5.5000000e-001
 -5.4000000e-001
 -5.5000000e-001
 -5.5000000e-001
 -5.2500000e-001
 -5.4500000e-001
 -5.2000000e-001
 -5.1000000e-001
 -5.0000000e-001
 -5.2000000e-001
 -5.3500000e-001
 -5.4000000e-001
 -5.2000000e-001
 -5.0500000e-001
 -4.8000000e-001
 -5.2500000e-001
 -5.3500000e-001
 -5.2000000e-001
 -5.1000000e-001
 -5.1000000e-001
 -5.0000000e-001
 -5.0000000e-001
 -4.8500000e-001
 -4.8000000e-001
 -4.4500000e-001
 -4.1000000e-001
 -3.6500000e-001
 -3.5000000e-001
 -3.5500000e-001
 -2.8000000e-001
 -1.8500000e-001
 -1.0500000e-001
 -1.9500000e-001
 -4.3500000e-001
 -7.7000000e-001
 -1.0900000e+000
 -1.3800000e+000
 -1.7050000e+000
 -1.9900000e+000
 -2.2050000e+000
 -2.3550000e+000
 -2.4250000e+000
 -2.2800000e+000
 -1.9350000e+000
 -1.6250000e+000
 -1.3600000e+000
 -1.1850000e+000
 -1.0150000e+000
 -8.6500000e-001
 -7.7000000e-001
 -7.0000000e-001
 -6.5500000e-001
 -5.8000000e-001
 -5.8000000e-001
 -5.3500000e-001
 -5.0000000e-001
 -4.7000000e-001
 -4.8000000e-001
 -4.7500000e-001
 -4.6500000e-001
 -4.5500000e-001
 -4.3000000e-001
 -4.3500000e-001
 -4.1500000e-001
 -4.3500000e-001
 -4.2500000e-001
 -4.1000000e-001
 -3.8500000e-001
 -3.7000000e-001
 -3.6000000e-001
 -3.1000000e-001
 -2.6000000e-001
 -2.3000000e-001
 -2.3500000e-001
 -2.7500000e-001
 -3.3000000e-001
 -3.2500000e-001
 -2.9500000e-001
 -2.6500000e-001
 -2.2000000e-001
 -1.9000000e-001
 -1.7000000e-001
 -1.6000000e-001
 -1.5000000e-001
 -1.2000000e-001
 -1.1000000e-001
 -1.1000000e-001
 -1.0000000e-001
 -8.5000000e-002
 -7.5000000e-002
 -7.5000000e-002
 -9.0000000e-002
 -7.0000000e-002
 -7.5000000e-002
 -7.5000000e-002
 -1.0500000e-001
 -1.1500000e-001
 -1.2500000e-001
 -1.6500000e-001
 -1.7500000e-001
 -2.0000000e-001
 -2.2500000e-001
 -2.3000000e-001
 -2.6500000e-001
 -3.1000000e-001
 -3.1500000e-001
 -3.4500000e-001
 -3.4500000e-001
 -3.5500000e-001
 -3.7000000e-001
 -3.7000000e-001
 -3.6500000e-001
 -3.8000000e-001
 -3.7000000e-001
 -3.8000000e-001
 -3.8500000e-001
 -3.8500000e-001
 -3.5500000e-001
 -3.3000000e-001
 -3.2000000e-001
 -3.0000000e-001
 -3.4000000e-001
 -3.6000000e-001
 -3.4000000e-001
 -3.3000000e-001
 -3.2000000e-001
 -2.9000000e-001
 -2.3000000e-001
 -2.3500000e-001
 -2.1000000e-001
 -1.8000000e-001
 -2.1500000e-001
 -2.4500000e-001
 -2.9000000e-001
 -3.2000000e-001
 -3.2000000e-001
 -3.3000000e-001
 -3.2000000e-001
 -3.3000000e-001
 -3.3500000e-001
 -3.2500000e-001
 -3.2500000e-001
 -3.2500000e-001
 -3.2500000e-001
 -3.2000000e-001
 -3.0500000e-001
 -3.3000000e-001
 -3.7500000e-001
 -4.2000000e-001
 -4.3000000e-001
 -4.4000000e-001
 -4.0500000e-001
 -3.9000000e-001
 -4.1000000e-001
 -3.8000000e-001
 -3.9500000e-001
 -3.9000000e-001
 -3.8500000e-001
 -3.6000000e-001
 -3.4500000e-001
 -3.5000000e-001
 -3.9500000e-001
 -3.9500000e-001
 -3.6000000e-001
 -3.8500000e-001
 -3.7500000e-001
 -3.6000000e-001
 -3.5500000e-001
 -3.2000000e-001
 -3.1500000e-001
 -2.7000000e-001
 -2.4000000e-001
 -2.0500000e-001
 -1.0500000e-001
 -2.0000000e-002
 -5.0000000e-003
 -1.3000000e-001
 -4.1000000e-001
 -7.8500000e-001
 -1.1650000e+000
 -1.5100000e+000
 -1.8150000e+000
 -2.0850000e+000
 -2.3300000e+000
 -2.4900000e+000
 -2.5100000e+000
 -2.3050000e+000
 -1.9050000e+000
 -1.5400000e+000
 -1.2350000e+000
 -1.0500000e+000
 -8.9500000e-001
 -7.8500000e-001
 -6.5500000e-001
 -5.6500000e-001
 -5.1500000e-001
 -4.8500000e-001
 -4.8000000e-001
 -4.5500000e-001
 -4.5000000e-001
 -4.0500000e-001
 -3.6500000e-001
 -3.4000000e-001
 -3.5500000e-001
 -3.4000000e-001
 -3.3000000e-001
 -3.2000000e-001
 -3.1000000e-001
 -2.8500000e-001
 -2.8500000e-001
 -2.7500000e-001
 -2.7500000e-001
 -2.7500000e-001
 -2.4000000e-001
 -2.4500000e-001
 -2.3000000e-001
 -1.9000000e-001
 -2.0000000e-001
 -1.6500000e-001
 -1.5000000e-001
 -1.2000000e-001
 -1.0500000e-001
 -7.5000000e-002
 -8.0000000e-002
 -4.0000000e-002
 -3.5000000e-002
 -5.0000000e-003
  0.0000000e+000
  0.0000000e+000
 -5.0000000e-003
  2.5000000e-002
  3.5000000e-002
  3.5000000e-002
  4.5000000e-002
  1.0000000e-002
 -5.0000000e-003
 -5.0000000e-003
 -1.5000000e-002
 -3.0000000e-002
 -7.5000000e-002
 -1.0000000e-001
 -1.1000000e-001
 -1.3500000e-001
 -1.6500000e-001
 -1.8000000e-001
 -1.7500000e-001
 -2.0500000e-001
 -2.2500000e-001
 -2.4000000e-001
 -2.7000000e-001
 -2.7500000e-001
 -2.9000000e-001
 -3.3500000e-001
 -3.4500000e-001
 -3.3500000e-001
 -3.4000000e-001
 -3.2500000e-001
 -3.3500000e-001
 -3.5500000e-001
 -4.0500000e-001
 -4.3000000e-001
 -4.3500000e-001
 -3.9000000e-001
 -3.6500000e-001
 -3.6500000e-001
 -3.4000000e-001
 -3.3500000e-001
 -2.8500000e-001
 -2.6500000e-001
 -2.3000000e-001
 -1.6000000e-001
 -1.3500000e-001
 -1.4500000e-001
 -1.6500000e-001
 -1.6500000e-001
 -2.3000000e-001
 -2.9500000e-001
 -3.5000000e-001
 -3.5500000e-001
 -3.4000000e-001
 -3.4000000e-001
 -3.9000000e-001
 -3.9000000e-001
 -3.6500000e-001
 -3.4000000e-001
 -3.6500000e-001
 -3.5500000e-001
 -3.7000000e-001
 -4.0000000e-001
 -4.2000000e-001
 -4.3000000e-001
 -4.0500000e-001
 -3.8000000e-001
 -4.1000000e-001
 -4.1000000e-001
 -4.1500000e-001
 -4.0500000e-001
 -3.9000000e-001
 -3.9500000e-001
 -4.0500000e-001
 -3.9000000e-001
 -4.0500000e-001
 -4.0500000e-001
 -3.8500000e-001
 -3.7500000e-001
 -3.8000000e-001
 -3.8000000e-001
 -3.6000000e-001
 -3.5500000e-001
 -3.5500000e-001
 -3.4000000e-001
 -3.3500000e-001
 -3.2000000e-001
 -3.0000000e-001
 -2.9500000e-001
 -2.3000000e-001
 -1.4000000e-001
 -2.0000000e-002
 -2.0000000e-002
 -2.1500000e-001
 -5.7500000e-001
 -9.4000000e-001
 -1.2750000e+000
 -1.6100000e+000
 -1.9800000e+000
 -2.2750000e+000
 -2.5000000e+000
 -2.6150000e+000
 -2.5500000e+000
 -2.2300000e+000
 -1.8150000e+000
 -1.4400000e+000
 -1.1850000e+000
 -1.0100000e+000
 -8.4500000e-001
 -7.8000000e-001
 -6.8500000e-001
 -6.2500000e-001
 -5.6000000e-001
 -5.3000000e-001
 -5.0000000e-001
 -4.6500000e-001
 -4.5000000e-001
 -4.7000000e-001
 -4.8000000e-001
 -4.5000000e-001
 -4.1500000e-001
 -3.8000000e-001
 -3.9000000e-001
 -3.8000000e-001
 -3.8000000e-001
 -3.9500000e-001
 -3.5500000e-001
 -3.3500000e-001
 -3.1000000e-001
 -3.2000000e-001
 -3.3500000e-001
 -3.1000000e-001
 -3.4000000e-001
 -3.5500000e-001
 -3.5500000e-001
 -3.1500000e-001
 -2.4500000e-001
 -2.0000000e-001
 -1.6500000e-001
 -2.0000000e-001
 -1.7500000e-001
 -1.5000000e-001
 -1.2000000e-001
 -1.2500000e-001
 -1.1500000e-001
 -8.5000000e-002
 -9.5000000e-002
 -9.5000000e-002
 -5.0000000e-002
 -1.5000000e-002
 -5.0000000e-002
 -1.0000000e-001
 -1.5000000e-001
 -1.8500000e-001
 -1.7000000e-001
 -1.6500000e-001
 -1.6000000e-001
 -1.6500000e-001
 -2.2500000e-001
 -2.7500000e-001
 -2.8500000e-001
 -3.0000000e-001
 -3.1500000e-001
 -3.2500000e-001
 -3.5500000e-001
 -3.5000000e-001
 -3.7500000e-001
 -4.0500000e-001
 -4.1500000e-001
 -3.9000000e-001
 -3.9000000e-001
 -3.8000000e-001
 -4.1500000e-001
 -4.5500000e-001
 -4.8500000e-001
 -4.7000000e-001
 -4.6500000e-001
 -4.7000000e-001
 -4.6500000e-001
 -4.6500000e-001
 -4.5000000e-001
 -4.1500000e-001
 -3.8000000e-001
 -3.4000000e-001
 -3.0000000e-001
 -2.8000000e-001
 -2.4500000e-001
 -2.5000000e-001
 -2.3000000e-001
 -2.3000000e-001
 -2.3000000e-001
 -2.9000000e-001
 -3.5000000e-001
 -3.9500000e-001
 -4.3500000e-001
 -3.9000000e-001
 -3.8500000e-001
 -4.3000000e-001
 -4.5500000e-001
 -4.9000000e-001
 -4.9500000e-001
 -4.7500000e-001
 -4.6500000e-001
 -4.7000000e-001
 -4.5000000e-001
 -4.8000000e-001
 -4.9500000e-001
 -4.9000000e-001
 -4.7000000e-001
 -4.8000000e-001
 -4.9000000e-001
 -4.8000000e-001
 -4.6000000e-001
 -5.0500000e-001
 -4.8500000e-001
 -4.9000000e-001
 -4.8500000e-001
 -5.0000000e-001
 -4.8500000e-001
 -4.9000000e-001
 -4.7000000e-001
 -4.6000000e-001
 -4.5000000e-001
 -4.9500000e-001
 -4.5500000e-001
 -4.4000000e-001
 -4.2500000e-001
 -4.0000000e-001
 -3.9500000e-001
 -3.9000000e-001
 -4.1500000e-001
 -3.9000000e-001
 -3.1000000e-001
 -1.9500000e-001
 -6.5000000e-002
 -8.0000000e-002
 -2.7000000e-001
 -5.8000000e-001
 -9.3000000e-001
 -1.2800000e+000
 -1.6050000e+000
 -1.9300000e+000
 -2.1550000e+000
 -2.3600000e+000
 -2.4350000e+000
 -2.3250000e+000
 -2.0150000e+000
 -1.6500000e+000
 -1.3250000e+000
 -1.1450000e+000
 -1.0300000e+000
 -9.2500000e-001
 -8.3000000e-001
 -7.6000000e-001
 -7.1000000e-001
 -6.8500000e-001
 -6.2000000e-001
 -5.8000000e-001
 -5.6000000e-001
 -5.3500000e-001
 -5.1000000e-001
 -5.0000000e-001
 -4.8500000e-001
 -5.1500000e-001
 -5.0500000e-001
 -4.9500000e-001
 -4.5500000e-001
 -4.7000000e-001
 -4.5500000e-001
 -4.0000000e-001
 -3.7500000e-001
 -3.4000000e-001
 -3.6000000e-001
 -3.8500000e-001
 -3.7000000e-001
 -4.0000000e-001
 -4.2000000e-001
 -4.1500000e-001
 -3.3000000e-001
 -2.7500000e-001
 -2.4000000e-001
 -2.5000000e-001
 -2.2500000e-001
 -2.3000000e-001
 -1.8000000e-001
 -1.7500000e-001
 -1.9000000e-001
 -2.3000000e-001
 -2.3000000e-001
 -2.5500000e-001
 -2.2000000e-001
 -1.9500000e-001
 -1.1000000e-001
 -1.2500000e-001
 -1.4000000e-001
 -1.3500000e-001
 -1.3500000e-001
 -1.4500000e-001
 -1.0500000e-001
 -8.5000000e-002
 -1.3500000e-001
 -2.2500000e-001
 -2.6500000e-001
 -2.9500000e-001
 -3.0500000e-001
 -3.3500000e-001
 -3.3000000e-001
 -3.4000000e-001
 -3.9000000e-001
 -4.0500000e-001
 -4.4000000e-001
 -4.1000000e-001
 -4.1000000e-001
 -4.2000000e-001
 -4.0500000e-001
 -4.1000000e-001
 -4.0000000e-001
 -4.1500000e-001
 -3.9500000e-001
 -3.8500000e-001
 -3.8500000e-001
 -4.0500000e-001
 -3.8500000e-001
 -4.0000000e-001
 -3.9500000e-001
 -3.7500000e-001
 -3.8000000e-001
 -3.6000000e-001
 -3.3000000e-001
 -2.8500000e-001
 -2.7000000e-001
 -2.3000000e-001
 -2.0000000e-001
 -2.1000000e-001
 -2.8500000e-001
 -3.6000000e-001
 -3.9500000e-001
 -4.4000000e-001
 -4.6500000e-001
 -4.4000000e-001
 -4.1500000e-001
 -4.0000000e-001
 -4.1000000e-001
 -4.2500000e-001
 -4.5500000e-001
 -4.2000000e-001
 -3.9000000e-001
 -3.4500000e-001
 -3.3500000e-001
 -3.8500000e-001
 -4.2500000e-001
 -4.5500000e-001
 -4.9500000e-001
 -5.1500000e-001
 -4.9000000e-001
 -5.0500000e-001
 -4.9000000e-001
 -4.7500000e-001
 -4.5000000e-001
 -4.5500000e-001
 -4.6500000e-001
 -4.5500000e-001
 -4.7000000e-001
 -4.7000000e-001
 -4.6000000e-001
 -4.4000000e-001
 -4.3500000e-001
 -4.4500000e-001
 -4.2000000e-001
 -4.1500000e-001
 -4.1000000e-001
 -3.6500000e-001
 -3.3000000e-001
 -3.1000000e-001
 -3.0500000e-001
 -2.9000000e-001
 -2.3000000e-001
 -1.2000000e-001
 -1.5000000e-002
 -3.5000000e-002
 -1.9000000e-001
 -4.8500000e-001
 -8.0500000e-001
 -1.0950000e+000
 -1.4200000e+000
 -1.7050000e+000
 -1.9300000e+000
 -2.1200000e+000
 -2.2850000e+000
 -2.2800000e+000
 -2.0500000e+000
 -1.7000000e+000
 -1.3800000e+000
 -1.1300000e+000
 -9.3500000e-001
 -7.9500000e-001
 -7.2000000e-001
 -6.3000000e-001
 -5.5000000e-001
 -5.0500000e-001
 -5.0500000e-001
 -4.9500000e-001
 -5.0000000e-001
 -4.6000000e-001
 -4.7000000e-001
 -4.4000000e-001
 -4.1000000e-001
 -3.7000000e-001
 -3.5500000e-001
 -3.7000000e-001
 -3.9000000e-001
 -3.7500000e-001
 -3.6500000e-001
 -3.7000000e-001
 -3.5500000e-001
 -3.5000000e-001
 -3.1000000e-001
 -2.8000000e-001
 -2.7500000e-001
 -3.1000000e-001
 -3.0500000e-001
 -2.7000000e-001
 -2.4000000e-001
 -1.8500000e-001
 -1.3500000e-001
 -1.3500000e-001
 -1.0500000e-001
 -9.5000000e-002
 -8.0000000e-002
 -9.0000000e-002
 -8.0000000e-002
 -5.5000000e-002
 -3.5000000e-002
 -2.5000000e-002
 -4.0000000e-002
 -2.5000000e-002
 -1.5000000e-002
 -1.0000000e-002
  0.0000000e+000
 -1.5000000e-002
 -4.5000000e-002
 -6.0000000e-002
 -7.0000000e-002
 -8.0000000e-002
 -6.5000000e-002
 -7.0000000e-002
 -9.5000000e-002
 -1.3500000e-001
 -1.4500000e-001
 -2.1000000e-001
 -2.3000000e-001
 -2.6500000e-001
 -2.9500000e-001
 -3.1000000e-001
 -3.1500000e-001
 -3.4000000e-001
 -3.6000000e-001
 -3.4000000e-001
 -3.6500000e-001
 -3.5000000e-001
 -3.6000000e-001
 -3.7000000e-001
 -3.8500000e-001
 -4.0000000e-001
 -3.8000000e-001
 -3.5000000e-001
 -3.6000000e-001
 -3.5000000e-001
 -3.4000000e-001
 -3.2500000e-001
 -2.9500000e-001
 -2.6500000e-001
 -2.2000000e-001
 -1.6000000e-001
 -1.8000000e-001
 -1.6500000e-001
 -1.9000000e-001
 -1.9500000e-001
 -2.3000000e-001
 -2.5500000e-001
 -2.4000000e-001
 -3.1000000e-001
 -3.3000000e-001
 -3.9000000e-001
 -3.9500000e-001
 -3.8000000e-001
 -3.6500000e-001
 -3.5000000e-001
 -3.5500000e-001
 -3.9000000e-001
 -3.8000000e-001
 -3.5500000e-001
 -3.1000000e-001
 -3.4500000e-001
 -4.1500000e-001
 -4.5500000e-001
 -4.6500000e-001
 -4.1000000e-001
 -4.2000000e-001
 -4.3000000e-001
 -4.4500000e-001
 -4.3500000e-001
 -4.3000000e-001
 -4.0500000e-001
 -3.9500000e-001
 -4.0500000e-001
 -4.3000000e-001
 -4.6000000e-001
 -4.4500000e-001
 -4.1500000e-001
 -3.7500000e-001
 -3.6000000e-001
 -3.8500000e-001
 -4.1000000e-001
 -3.9500000e-001
 -3.7500000e-001
 -3.5500000e-001
 -3.3000000e-001
 -2.9500000e-001
 -2.8500000e-001
 -2.1000000e-001
 -8.0000000e-002
  5.0000000e-003
 -7.0000000e-002
 -3.1500000e-001
 -6.5500000e-001
 -9.6500000e-001
 -1.3050000e+000
 -1.6800000e+000
 -2.0250000e+000
 -2.2750000e+000
 -2.4100000e+000
 -2.4650000e+000
 -2.2700000e+000
 -1.9050000e+000
 -1.5450000e+000
 -1.2700000e+000
 -1.0450000e+000
 -8.7000000e-001
 -7.4500000e-001
 -6.5000000e-001
 -5.8000000e-001
 -5.2500000e-001
 -4.7000000e-001
 -4.5000000e-001
 -4.2500000e-001
 -4.0000000e-001
 -3.9000000e-001
 -3.7000000e-001
 -3.4500000e-001
 -3.4500000e-001
 -3.2000000e-001
 -3.0500000e-001
 -2.9500000e-001
 -2.9000000e-001
 -3.0000000e-001
 -3.0500000e-001
 -2.7000000e-001
 -2.9000000e-001
 -2.6500000e-001
 -2.5000000e-001
 -2.3500000e-001
 -2.3000000e-001
 -2.2500000e-001
 -1.8500000e-001
 -1.7500000e-001
 -1.2500000e-001
 -1.1500000e-001
 -6.5000000e-002
 -5.0000000e-002
 -5.0000000e-002
 -2.5000000e-002
 -2.5000000e-002
 -2.5000000e-002
 -4.5000000e-002
 -3.5000000e-002
  2.0000000e-002
  3.5000000e-002
  2.5000000e-002
  2.0000000e-002
 -5.0000000e-003
  2.0000000e-002
  1.5000000e-002
 -1.0000000e-002
 -2.5000000e-002
  1.5000000e-002
  1.0000000e-002
  5.0000000e-003
 -8.0000000e-002
 -1.4000000e-001
 -2.0500000e-001
 -2.0500000e-001
 -1.8000000e-001
 -1.8500000e-001
 -2.3000000e-001
 -2.5500000e-001
 -2.8000000e-001
 -3.1000000e-001
 -2.8500000e-001
 -2.9500000e-001
 -2.8500000e-001
 -2.9500000e-001
 -2.8000000e-001
 -3.2000000e-001
 -3.5500000e-001
 -3.9000000e-001
 -3.7500000e-001
 -3.6000000e-001
 -3.5000000e-001
 -3.2500000e-001
 -3.3500000e-001
 -3.5500000e-001
 -3.5000000e-001
 -3.1500000e-001
 -2.9500000e-001
 -2.6000000e-001
 -2.4500000e-001
 -2.0000000e-001
 -1.7500000e-001
 -1.5500000e-001
 -1.4500000e-001
 -1.7500000e-001
 -2.3000000e-001
 -2.5000000e-001
 -2.9000000e-001
 -3.1000000e-001
 -2.6000000e-001
 -2.5000000e-001
 -3.2000000e-001
 -4.0000000e-001
 -4.4000000e-001
 -4.4500000e-001
 -3.9500000e-001
 -4.0000000e-001
 -4.2500000e-001
 -4.0500000e-001
 -3.8500000e-001
 -3.8000000e-001
 -3.8500000e-001
 -3.6500000e-001
 -3.7000000e-001
 -3.8000000e-001
 -3.9000000e-001
 -3.8500000e-001
 -3.8500000e-001
 -3.9000000e-001
 -3.6000000e-001
 -3.2000000e-001
 -3.5500000e-001
 -4.2500000e-001
 -4.3000000e-001
 -4.1000000e-001
 -3.9000000e-001
 -3.9000000e-001
 -3.7500000e-001
 -3.8000000e-001
 -3.9000000e-001
 -3.9500000e-001
 -3.5000000e-001
 -3.2000000e-001
 -2.7000000e-001
 -2.3500000e-001
 -2.2000000e-001
 -2.1000000e-001
 -1.1000000e-001
 -5.5000000e-002
 -1.8000000e-001
 -5.0000000e-001
 -8.5000000e-001
 -1.1750000e+000
 -1.5250000e+000
 -1.8450000e+000
 -2.1450000e+000
 -2.3500000e+000
 -2.4650000e+000
 -2.4300000e+000
 -2.1300000e+000
 -1.7800000e+000
 -1.4350000e+000
 -1.1700000e+000
 -9.9000000e-001
 -8.6000000e-001
 -7.5000000e-001
 -6.6000000e-001
 -5.9000000e-001
 -5.1500000e-001
 -4.7500000e-001
 -5.0000000e-001
 -4.8000000e-001
 -4.5500000e-001
 -4.5500000e-001
 -4.3500000e-001
 -4.2500000e-001
 -4.1000000e-001
 -4.2000000e-001
 -3.6500000e-001
 -3.8000000e-001
 -3.5500000e-001
 -3.5500000e-001
 -3.5000000e-001
 -3.7000000e-001
 -3.7500000e-001
 -3.7000000e-001
 -3.4500000e-001
 -3.2000000e-001
 -2.7500000e-001
 -2.3500000e-001
 -2.5500000e-001
 -2.3000000e-001
 -2.3000000e-001
 -2.3000000e-001
 -1.8500000e-001
 -1.5000000e-001
 -1.2500000e-001
 -1.2500000e-001
 -1.0500000e-001
 -1.2000000e-001
 -1.1000000e-001
 -8.0000000e-002
 -6.0000000e-002
 -6.0000000e-002
 -6.0000000e-002
 -6.5000000e-002
 -6.0000000e-002
 -8.0000000e-002
 -9.5000000e-002
 -9.0000000e-002
 -1.0500000e-001
 -1.0000000e-001
 -1.0000000e-001
 -9.5000000e-002
 -1.5000000e-001
 -1.8500000e-001
 -2.1500000e-001
 -2.2500000e-001
 -2.4000000e-001
 -2.5500000e-001
 -2.7500000e-001
 -2.9000000e-001
 -3.4500000e-001
 -3.8500000e-001
 -4.1500000e-001
 -4.2000000e-001
 -3.9000000e-001
 -4.1000000e-001
 -4.1000000e-001
 -4.3000000e-001
 -4.3500000e-001
 -4.3000000e-001
 -4.4500000e-001
 -4.4500000e-001
 -4.6000000e-001
 -4.1500000e-001
 -4.1000000e-001
 -4.0500000e-001
 -3.6000000e-001
 -3.3000000e-001
 -3.0500000e-001
 -3.2500000e-001
 -3.1500000e-001
 -3.0500000e-001
 -2.4500000e-001
 -2.3000000e-001
 -2.2500000e-001
 -2.1000000e-001
 -2.7500000e-001
 -3.6500000e-001
 -4.4500000e-001
 -4.5500000e-001
 -4.1000000e-001
 -3.9500000e-001
 -3.9500000e-001
 -4.3500000e-001
 -4.3500000e-001
 -4.4500000e-001
 -4.1500000e-001
 -4.0500000e-001
 -3.6500000e-001
 -3.7500000e-001
 -3.9000000e-001
 -4.4500000e-001
 -4.4500000e-001
 -4.3500000e-001
 -4.3500000e-001
 -4.4000000e-001
 -4.2000000e-001
 -4.2000000e-001
 -4.4000000e-001
 -4.4000000e-001
 -4.4000000e-001
 -4.2000000e-001
 -4.2500000e-001
 -4.1000000e-001
 -4.2000000e-001
 -4.2500000e-001
 -4.2000000e-001
 -4.0500000e-001
 -4.0500000e-001
 -4.1500000e-001
 -4.2000000e-001
 -3.9500000e-001
 -3.9500000e-001
 -3.4000000e-001
 -3.2000000e-001
 -3.3000000e-001
 -2.7500000e-001
 -2.2000000e-001
 -8.5000000e-002
  0.0000000e+000
 -6.5000000e-002
 -2.6500000e-001
 -5.9500000e-001
 -8.9000000e-001
 -1.2000000e+000
 -1.5100000e+000
 -1.7900000e+000
 -2.0250000e+000
 -2.2300000e+000
 -2.2600000e+000
 -2.1900000e+000
 -1.9250000e+000
 -1.5850000e+000
 -1.2950000e+000
 -1.0550000e+000
 -9.1000000e-001
 -8.0000000e-001
 -7.1500000e-001
 -6.6000000e-001
 -5.9000000e-001
 -5.5000000e-001
 -4.9500000e-001
 -4.7000000e-001
 -4.8000000e-001
 -4.8000000e-001
 -4.6500000e-001
 -4.5500000e-001
 -4.4500000e-001
 -4.0500000e-001
 -4.2000000e-001
 -3.9000000e-001
 -3.9500000e-001
 -3.6000000e-001
 -3.2500000e-001
 -2.6000000e-001
 -2.7500000e-001
 -3.4500000e-001
 -4.2000000e-001
 -4.3500000e-001
 -3.7000000e-001
 -3.1000000e-001
 -2.9000000e-001
 -2.9000000e-001
 -2.3500000e-001
 -2.3000000e-001
 -1.9500000e-001
 -1.5000000e-001
 -1.5500000e-001
 -1.9000000e-001
 -1.6500000e-001
 -1.3500000e-001
 -8.0000000e-002
 -1.0000000e-001
 -1.0000000e-001
 -1.0000000e-001
 -1.0500000e-001
 -8.0000000e-002
 -4.5000000e-002
 -5.5000000e-002
 -5.5000000e-002
 -3.5000000e-002
 -6.0000000e-002
 -6.0000000e-002
 -4.5000000e-002
 -8.5000000e-002
 -1.3500000e-001
 -1.4500000e-001
 -1.5500000e-001
 -2.0500000e-001
 -1.9500000e-001
 -1.9000000e-001
 -2.2000000e-001
 -2.3000000e-001
 -2.2000000e-001
 -2.6000000e-001
 -2.5500000e-001
 -2.7000000e-001
 -2.8500000e-001
 -3.0000000e-001
 -3.2000000e-001
 -3.4000000e-001
 -3.6500000e-001
 -3.4500000e-001
 -3.5000000e-001
 -3.0500000e-001
 -3.1000000e-001
 -3.0000000e-001
 -3.0500000e-001
 -3.1000000e-001
 -2.9500000e-001
 -2.6500000e-001
 -2.6500000e-001
 -2.5000000e-001
 -2.0500000e-001
 -1.6000000e-001
 -1.3000000e-001
 -1.7000000e-001
 -2.0500000e-001
 -2.4500000e-001
 -2.7500000e-001
 -3.0500000e-001
 -3.2000000e-001
 -3.2000000e-001
 -3.5000000e-001
 -3.7000000e-001
 -3.6500000e-001
 -3.8000000e-001
 -3.6000000e-001
 -3.4000000e-001
 -3.5000000e-001
 -3.3500000e-001
 -3.2500000e-001
 -3.1500000e-001
 -3.4000000e-001
 -3.7500000e-001
 -3.9000000e-001
 -4.0500000e-001
 -3.9000000e-001
 -3.4500000e-001
 -3.2500000e-001
 -3.1000000e-001
 -3.6500000e-001
 -3.7500000e-001
 -4.0500000e-001
 -4.2000000e-001
 -4.3500000e-001
 -4.3500000e-001
 -3.9000000e-001
 -3.9500000e-001
 -3.4500000e-001
 -3.3500000e-001
 -3.3000000e-001
 -3.4500000e-001
 -3.4000000e-001
 -3.3000000e-001
 -3.1000000e-001
 -2.9500000e-001
 -2.6000000e-001
 -2.6500000e-001
 -2.3000000e-001
 -1.4000000e-001
 -7.0000000e-002
  5.0000000e-002
  4.5000000e-002
 -1.0500000e-001
 -4.0500000e-001
 -7.2000000e-001
 -1.0250000e+000
 -1.3450000e+000
 -1.6200000e+000
 -1.8700000e+000
 -2.0950000e+000
 -2.2800000e+000
 -2.2600000e+000
 -1.9850000e+000
 -1.6250000e+000
 -1.3550000e+000
 -1.1150000e+000
 -9.6000000e-001
 -8.0500000e-001
 -6.8500000e-001
 -6.0500000e-001
 -5.2500000e-001
 -4.6000000e-001
 -4.2500000e-001
 -4.1000000e-001
 -3.9000000e-001
 -3.6000000e-001
 -3.3000000e-001
 -3.3500000e-001
 -3.2000000e-001
 -3.2000000e-001
 -3.2000000e-001
 -3.0000000e-001
 -2.9500000e-001
 -2.8000000e-001
 -2.5500000e-001
 -2.5000000e-001
 -2.6000000e-001
 -2.3500000e-001
 -2.1500000e-001
 -1.9500000e-001
 -1.9000000e-001
 -1.6500000e-001
 -1.6000000e-001
 -1.5000000e-001
 -1.3500000e-001
 -1.2000000e-001
 -1.3000000e-001
 -1.1000000e-001
 -7.0000000e-002
 -4.0000000e-002
 -6.0000000e-002
 -4.0000000e-002
 -1.5000000e-002
  5.0000000e-003
  5.0000000e-003
  1.5000000e-002
  3.0000000e-002
 -1.5000000e-002
  5.0000000e-003
  1.0000000e-002
  0.0000000e+000
  3.5000000e-002
 -5.0000000e-003
  0.0000000e+000
  5.0000000e-003
 -5.0000000e-003
 -5.5000000e-002
 -1.1500000e-001
 -1.4000000e-001
 -1.5500000e-001
 -1.5000000e-001
 -1.6000000e-001
 -1.5000000e-001
 -1.8000000e-001
 -1.6000000e-001
 -1.7500000e-001
 -2.3000000e-001
 -2.7000000e-001
 -3.3000000e-001
 -3.6500000e-001
 -3.8500000e-001
 -3.7500000e-001
 -3.8500000e-001
 -3.5500000e-001
 -3.2000000e-001
 -3.0000000e-001
 -2.9000000e-001
 -2.9000000e-001
 -2.7500000e-001
 -2.7500000e-001
 -2.5000000e-001
 -2.1000000e-001
 -2.3000000e-001
 -2.7000000e-001
 -2.4500000e-001
 -1.8000000e-001
 -1.3000000e-001
 -1.0500000e-001
 -8.0000000e-002
 -1.4000000e-001
 -1.4000000e-001
 -1.6000000e-001
 -1.6000000e-001
 -1.9500000e-001
 -1.9000000e-001
 -2.3500000e-001
 -2.3000000e-001
 -2.3000000e-001
 -2.0500000e-001
 -2.0000000e-001
 -2.1000000e-001
 -1.9500000e-001
 -1.7500000e-001
 -2.0500000e-001
 -2.3000000e-001
 -2.6000000e-001
 -2.8000000e-001
 -2.3500000e-001
 -2.0500000e-001
 -1.9000000e-001
 -2.2000000e-001
 -2.6500000e-001
 -3.0500000e-001
 -3.0500000e-001
 -2.8500000e-001
 -2.7000000e-001
 -2.3500000e-001
 -2.0500000e-001
 -2.2000000e-001
 -2.4000000e-001
 -2.7500000e-001
 -2.8500000e-001
 -2.5500000e-001
 -2.1000000e-001
 -2.0000000e-001
 -2.3000000e-001
 -2.3500000e-001
 -2.2000000e-001
 -2.0500000e-001
 -1.8500000e-001
 -1.4000000e-001
 -1.1500000e-001
 -2.5000000e-002
  1.1000000e-001
  1.3000000e-001
 -2.0000000e-002
 -2.9500000e-001
 -6.4000000e-001
 -9.6500000e-001
 -1.2950000e+000
 -1.6300000e+000
 -1.9200000e+000
 -2.1700000e+000
 -2.3700000e+000
 -2.3800000e+000
 -2.1850000e+000
 -1.8050000e+000
 -1.4750000e+000
 -1.1550000e+000
 -9.2500000e-001
 -7.8000000e-001
 -6.5000000e-001
 -5.7500000e-001
 -5.0500000e-001
 -4.4000000e-001
 -3.8500000e-001
 -3.8000000e-001
 -3.5000000e-001
 -2.9500000e-001
 -2.9000000e-001
 -2.9000000e-001
 -2.6000000e-001
 -2.4000000e-001
 -2.4000000e-001
 -2.1000000e-001
 -2.2500000e-001
 -2.1500000e-001
 -2.1000000e-001
 -1.8000000e-001
 -1.7000000e-001
 -1.3000000e-001
 -1.3000000e-001
 -1.0000000e-001
 -1.1000000e-001
 -8.5000000e-002
 -9.0000000e-002
 -7.0000000e-002
 -3.5000000e-002
 -5.0000000e-003
 -5.0000000e-003
 -2.5000000e-002
 -2.0000000e-002
 -5.0000000e-003
  3.5000000e-002
  7.0000000e-002
  7.0000000e-002
  1.0500000e-001
  1.1500000e-001
  9.5000000e-002
  8.5000000e-002
  7.0000000e-002
  8.5000000e-002
  8.0000000e-002
  5.5000000e-002
  4.5000000e-002
  8.0000000e-002
  1.1500000e-001
  9.5000000e-002
  5.5000000e-002
  1.0000000e-002
  0.0000000e+000
 -3.0000000e-002
 -8.5000000e-002
 -1.1500000e-001
 -1.4500000e-001
 -1.3500000e-001
 -1.5500000e-001
 -1.7000000e-001
 -2.2500000e-001
 -2.4000000e-001
 -2.8000000e-001
 -2.8500000e-001
 -2.6500000e-001
 -2.7500000e-001
 -2.6500000e-001
 -2.8000000e-001
 -2.8000000e-001
 -2.9000000e-001
 -3.1000000e-001
 -2.8000000e-001
 -2.8500000e-001
 -2.9000000e-001
 -2.8000000e-001
 -2.8000000e-001
 -2.6500000e-001
 -2.2000000e-001
 -1.9500000e-001
 -1.8000000e-001
 -1.4000000e-001
 -1.1500000e-001
 -1.1000000e-001
 -1.0000000e-001
 -1.0500000e-001
 -1.2500000e-001
 -1.3500000e-001
 -1.7000000e-001
 -1.9000000e-001
 -1.8500000e-001
 -1.2500000e-001
 -6.5000000e-002
 -3.0000000e-002
 -2.5000000e-002
 -6.5000000e-002
 -7.0000000e-002
 -9.5000000e-002
 -1.2500000e-001
 -1.6000000e-001
 -1.9500000e-001
 -1.4000000e-001
 -6.0000000e-002
  6.5000000e-002
  2.0000000e-001
  3.2000000e-001
  4.4500000e-001
  5.8500000e-001
  7.3000000e-001
  8.8500000e-001
  1.0200000e+000
  1.2150000e+000
  1.4350000e+000
  1.6500000e+000
  1.7850000e+000
  1.8500000e+000
  1.7950000e+000
  1.6400000e+000
  1.3900000e+000
  1.0250000e+000
  6.4500000e-001
  2.6000000e-001
 -1.5500000e-001
 -4.8500000e-001
 -6.6500000e-001
 -7.5500000e-001
 -8.5000000e-001
 -9.5500000e-001
 -1.0300000e+000
 -1.0900000e+000
 -1.1000000e+000
 -1.1000000e+000
 -1.1000000e+000
 -1.0950000e+000
 -1.0850000e+000
 -1.1100000e+000
 -1.1150000e+000
 -1.1150000e+000
 -1.1700000e+000
 -1.2300000e+000
 -1.2950000e+000
 -1.3200000e+000
 -1.3500000e+000
 -1.3700000e+000
 -1.3850000e+000
 -1.4000000e+000
 -1.4200000e+000
 -1.4450000e+000
 -1.4650000e+000
 -1.4950000e+000
 -1.4900000e+000
 -1.4650000e+000
 -1.4650000e+000
 -1.4700000e+000
 -1.4900000e+000
 -1.4700000e+000
 -1.4550000e+000
 -1.4350000e+000
 -1.4050000e+000
 -1.3800000e+000
 -1.3450000e+000
 -1.2950000e+000
 -1.2650000e+000
 -1.2400000e+000
 -1.1750000e+000
 -1.1350000e+000
 -1.1150000e+000
 -1.0700000e+000
 -1.0100000e+000
 -9.6000000e-001
 -9.1500000e-001
 -8.7000000e-001
 -8.3000000e-001
 -8.1500000e-001
 -7.6500000e-001
 -7.1000000e-001
 -6.8500000e-001
 -6.4000000e-001
 -6.1500000e-001
 -5.6500000e-001
 -5.3500000e-001
 -4.9500000e-001
 -5.0500000e-001
 -5.3500000e-001
 -5.3500000e-001
 -5.4500000e-001
 -5.4000000e-001
 -5.0500000e-001
 -4.6500000e-001
 -5.0000000e-001
 -4.8000000e-001
 -4.9000000e-001
 -4.9000000e-001
 -4.8500000e-001
 -4.7500000e-001
 -4.9500000e-001
 -5.0500000e-001
 -5.1000000e-001
 -5.2000000e-001
 -5.1500000e-001
 -4.7000000e-001
 -4.4000000e-001
 -4.1000000e-001
 -4.1500000e-001
 -4.3500000e-001
 -4.4000000e-001
 -4.4500000e-001
 -4.1500000e-001
 -3.6500000e-001
 -3.9500000e-001
 -4.6500000e-001
 -4.9000000e-001
 -4.9000000e-001
 -4.7000000e-001
 -4.8000000e-001
 -4.8500000e-001
 -4.8000000e-001
 -4.5000000e-001
 -4.2000000e-001
 -4.1000000e-001
 -3.7500000e-001
 -3.6500000e-001
 -3.2500000e-001
 -3.0500000e-001
 -2.5000000e-001
 -2.0500000e-001
 -2.0500000e-001
 -1.8500000e-001
 -2.1500000e-001
 -2.3500000e-001
 -2.9500000e-001
 -2.8500000e-001
 -3.0000000e-001
 -3.2500000e-001
 -3.3500000e-001
 -3.3500000e-001
 -3.4000000e-001
 -3.3000000e-001
 -3.0500000e-001
 -3.1000000e-001
 -3.1500000e-001
 -3.5000000e-001
 -3.7000000e-001
 -3.7500000e-001
 -3.8500000e-001
 -3.8000000e-001
 -3.6500000e-001
 -3.6000000e-001
 -3.5000000e-001
 -3.6500000e-001
 -3.6000000e-001
 -3.7000000e-001
 -3.6500000e-001
 -3.7000000e-001
 -3.7000000e-001
 -3.6000000e-001
 -3.7500000e-001
 -3.8000000e-001
 -3.6500000e-001
 -3.3000000e-001
 -3.4500000e-001
 -3.4000000e-001
 -3.4500000e-001
 -3.4000000e-001
 -3.2500000e-001
 -2.9500000e-001
 -2.7500000e-001
 -2.7000000e-001
 -2.7500000e-001
 -1.9000000e-001
 -9.0000000e-002
  1.5000000e-002
 -5.0000000e-003
 -1.5500000e-001
 -4.2000000e-001
 -7.4000000e-001
 -1.0750000e+000
 -1.3850000e+000
 -1.7000000e+000
 -1.9500000e+000
 -2.1450000e+000
 -2.2550000e+000
 -2.2200000e+000
 -1.9550000e+000
 -1.5450000e+000
 -1.2200000e+000
 -9.9000000e-001
 -8.2500000e-001
 -7.5500000e-001
 -7.3500000e-001
 -6.9500000e-001
 -5.9000000e-001
 -4.9000000e-001
 -4.0500000e-001
 -3.8500000e-001
 -3.7500000e-001
 -4.0000000e-001
 -4.3000000e-001
 -4.2500000e-001
 -3.9000000e-001
 -3.8000000e-001
 -4.0000000e-001
 -4.0000000e-001
 -4.0500000e-001
 -3.7000000e-001
 -3.4000000e-001
 -3.1500000e-001
 -3.1500000e-001
 -3.0000000e-001
 -2.6000000e-001
 -2.3000000e-001
 -2.0000000e-001
 -1.8500000e-001
 -1.8000000e-001
 -1.4500000e-001
 -1.5000000e-001
 -1.1000000e-001
 -1.0500000e-001
 -6.0000000e-002
 -7.5000000e-002
 -5.0000000e-002
 -5.5000000e-002
 -2.5000000e-002
 -2.0000000e-002
  2.0000000e-002
  1.5000000e-002
  2.0000000e-002
  5.0000000e-003
  1.5000000e-002
  1.5000000e-002
  0.0000000e+000
  1.5000000e-002
  5.0000000e-002
  4.0000000e-002
  2.5000000e-002
  2.0000000e-002
  2.5000000e-002
  3.0000000e-002
  1.5000000e-002
  1.0000000e-002
 -3.5000000e-002
 -4.0000000e-002
 -4.5000000e-002
 -7.5000000e-002
 -9.5000000e-002
 -1.3500000e-001
 -1.3500000e-001
 -1.6000000e-001
 -2.0500000e-001
 -2.4000000e-001
 -2.9000000e-001
 -2.9000000e-001
 -3.1500000e-001
 -3.4500000e-001
 -3.4500000e-001
 -3.6000000e-001
 -3.6500000e-001
 -3.8000000e-001
 -3.5000000e-001
 -3.5500000e-001
 -3.6000000e-001
 -3.5000000e-001
 -3.2000000e-001
 -3.0500000e-001
 -2.5000000e-001
 -2.4500000e-001
 -2.0500000e-001
 -2.0000000e-001
 -1.7500000e-001
 -1.5500000e-001
 -1.1000000e-001
 -1.2000000e-001
 -1.3000000e-001
 -2.2000000e-001
 -2.9000000e-001
 -2.7500000e-001
 -2.5500000e-001
 -2.9500000e-001
 -3.3500000e-001
 -3.8500000e-001
 -3.8500000e-001
 -3.6500000e-001
 -3.3500000e-001
 -3.1500000e-001
 -3.3000000e-001
 -3.2000000e-001
 -3.1000000e-001
 -2.8500000e-001
 -3.0500000e-001
 -3.0000000e-001
 -3.1500000e-001
 -3.2000000e-001
 -3.0000000e-001
 -3.0500000e-001
 -3.2500000e-001
 -3.5000000e-001
 -3.8000000e-001
 -3.4500000e-001
 -3.7000000e-001
 -3.6000000e-001
 -3.4000000e-001
 -3.6500000e-001
 -3.5500000e-001
 -3.8000000e-001
 -3.5500000e-001
 -3.5500000e-001
 -3.5500000e-001
 -3.5000000e-001
 -3.1000000e-001
 -3.1000000e-001
 -2.8500000e-001
 -2.8000000e-001
 -2.5500000e-001
 -2.6500000e-001
 -2.3000000e-001
 -1.2000000e-001
 -4.5000000e-002
 -5.0000000e-003
 -1.2000000e-001
 -3.5500000e-001
 -7.0000000e-001
 -1.0300000e+000
 -1.3650000e+000
 -1.7000000e+000
 -1.9550000e+000
 -2.1800000e+000
 -2.3000000e+000
 -2.2700000e+000
 -2.0500000e+000
 -1.7300000e+000
 -1.4100000e+000
 -1.1200000e+000
 -9.5000000e-001
 -8.4000000e-001
 -7.7500000e-001
 -7.2000000e-001
 -6.4000000e-001
 -5.8500000e-001
 -5.2500000e-001
 -5.1000000e-001
 -4.8500000e-001
 -4.3000000e-001
 -4.3500000e-001
 -4.2500000e-001
 -4.2000000e-001
 -4.0000000e-001
 -3.6000000e-001
 -3.5000000e-001
 -3.4000000e-001
 -2.9500000e-001
 -3.1500000e-001
 -3.4000000e-001
 -3.7000000e-001
 -3.6000000e-001
 -3.0500000e-001
 -2.7000000e-001
 -2.7500000e-001
 -2.5500000e-001
 -2.7500000e-001
 -2.6500000e-001
 -2.5500000e-001
 -2.2000000e-001
 -2.0500000e-001
 -1.4500000e-001
 -8.5000000e-002
 -5.5000000e-002
 -4.0000000e-002
 -4.5000000e-002
 -2.5000000e-002
 -2.0000000e-002
 -3.0000000e-002
 -2.5000000e-002
 -1.0000000e-002
 -4.0000000e-002
 -5.0000000e-002
 -4.5000000e-002
 -4.5000000e-002
 -8.0000000e-002
 -6.5000000e-002
 -6.5000000e-002
 -7.0000000e-002
 -7.5000000e-002
 -9.5000000e-002
 -1.0500000e-001
 -1.5500000e-001
 -1.6000000e-001
 -1.6500000e-001
 -1.7000000e-001
 -1.9500000e-001
 -2.0500000e-001
 -2.4000000e-001
 -2.5000000e-001
 -2.5500000e-001
 -2.8000000e-001
 -2.9000000e-001
 -3.1500000e-001
 -3.2000000e-001
 -3.3500000e-001
 -3.2000000e-001
 -3.3500000e-001
 -3.4500000e-001
 -3.2000000e-001
 -3.0500000e-001
 -3.1000000e-001
 -3.2500000e-001
 -3.2000000e-001
 -2.9500000e-001
 -3.0000000e-001
 -2.8500000e-001
 -2.4000000e-001
 -1.8500000e-001
 -1.5500000e-001
 -1.6000000e-001
 -1.6000000e-001
 -1.4000000e-001
 -1.3000000e-001
 -1.5000000e-001
 -2.0000000e-001
 -2.8000000e-001
 -2.9500000e-001
 -3.5000000e-001
 -3.7500000e-001
 -3.5500000e-001
 -3.4500000e-001
 -3.3000000e-001
 -3.2500000e-001
 -3.2000000e-001
 -3.4500000e-001
 -3.3500000e-001
 -3.5000000e-001
 -3.6000000e-001
 -3.4500000e-001
 -3.3500000e-001
 -3.4500000e-001
 -3.4000000e-001
 -3.3000000e-001
 -3.4000000e-001
 -3.4000000e-001
 -3.5000000e-001
 -3.3500000e-001
 -3.5000000e-001
 -3.6000000e-001
 -3.6000000e-001
 -3.4000000e-001
 -3.1000000e-001
 -2.7500000e-001
 -3.2000000e-001
 -4.2500000e-001
 -4.7000000e-001
 -4.4000000e-001
 -3.9000000e-001
 -3.4500000e-001
 -2.9000000e-001
 -2.9000000e-001
 -2.8500000e-001
 -2.4000000e-001
 -2.3000000e-001
 -1.9000000e-001
 -1.0500000e-001
 -2.0000000e-002
  1.0000000e-002
 -1.2500000e-001
 -4.4500000e-001
 -7.9000000e-001
 -1.1000000e+000
 -1.4350000e+000
 -1.7900000e+000
 -2.1000000e+000
 -2.4050000e+000
 -2.5800000e+000
 -2.5850000e+000
 -2.3100000e+000
 -1.8750000e+000
 -1.4650000e+000
 -1.1950000e+000
 -1.0250000e+000
 -9.2000000e-001
 -7.8500000e-001
 -6.3000000e-001
 -5.4000000e-001
 -5.0500000e-001
 -5.1500000e-001
 -5.1000000e-001
 -4.6000000e-001
 -4.1500000e-001
 -3.7500000e-001
 -3.3500000e-001
 -3.3500000e-001
 -3.5000000e-001
 -3.3000000e-001
 -3.0500000e-001
 -3.0500000e-001
 -3.1000000e-001
 -2.9000000e-001
 -3.0000000e-001
 -2.8500000e-001
 -2.5000000e-001
 -2.1000000e-001
 -2.3000000e-001
 -2.2000000e-001
 -2.0500000e-001
 -1.9000000e-001
 -1.6000000e-001
 -1.7000000e-001
 -1.7500000e-001
 -1.5000000e-001
 -1.3500000e-001
 -1.3000000e-001
 -9.0000000e-002
 -7.5000000e-002
 -5.5000000e-002
 -3.0000000e-002
 -4.5000000e-002
 -4.5000000e-002
 -4.5000000e-002
 -3.5000000e-002
 -4.0000000e-002
 -6.5000000e-002
 -7.0000000e-002
 -4.0000000e-002
 -7.5000000e-002
 -8.5000000e-002
 -1.0000000e-001
 -1.2500000e-001
 -1.4500000e-001
 -1.4500000e-001
 -1.8000000e-001
 -2.0000000e-001
 -2.0500000e-001
 -2.4500000e-001
 -2.8500000e-001
 -3.0500000e-001
 -3.0000000e-001
 -3.3000000e-001
 -3.3500000e-001
 -3.8000000e-001
 -4.2500000e-001
 -4.2000000e-001
 -4.5000000e-001
 -4.4000000e-001
 -4.4500000e-001
 -4.6500000e-001
 -4.5000000e-001
 -4.6000000e-001
 -4.6000000e-001
 -4.3500000e-001
 -4.4000000e-001
 -4.6500000e-001
 -4.5000000e-001
 -4.4500000e-001
 -4.4000000e-001
 -3.9000000e-001
 -3.6000000e-001
 -3.4500000e-001
 -3.2500000e-001
 -3.3500000e-001
 -3.3000000e-001
 -3.2500000e-001
 -3.0500000e-001
 -3.3000000e-001
 -3.8000000e-001
 -4.0000000e-001
 -4.3500000e-001
 -4.3000000e-001
 -4.5500000e-001
 -4.6500000e-001
 -4.6000000e-001
 -4.5000000e-001
 -4.6500000e-001
 -4.7000000e-001
 -5.0000000e-001
 -4.8500000e-001
 -4.7000000e-001
 -4.8500000e-001
 -5.0000000e-001
 -5.1500000e-001
 -5.2500000e-001
 -5.1000000e-001
 -5.1000000e-001
 -4.9000000e-001
 -5.3000000e-001
 -5.3000000e-001
 -5.1000000e-001
 -5.3000000e-001
 -5.3000000e-001
 -5.1000000e-001
 -5.1500000e-001
 -5.3000000e-001
 -5.2500000e-001
 -5.2000000e-001
 -5.3000000e-001
 -5.3000000e-001
 -5.3000000e-001
 -5.0000000e-001
 -4.7500000e-001
 -4.6500000e-001
 -4.3000000e-001
 -4.4500000e-001
 -4.4500000e-001
 -4.1500000e-001
 -3.0500000e-001
 -1.5500000e-001
 -8.5000000e-002
 -1.5500000e-001
 -3.9000000e-001
 -7.3000000e-001
 -1.0550000e+000
 -1.3700000e+000
 -1.7250000e+000
 -2.0900000e+000
 -2.3400000e+000
 -2.5400000e+000
 -2.6300000e+000
 -2.5550000e+000
 -2.2150000e+000
 -1.8300000e+000
 -1.4900000e+000
 -1.2700000e+000
 -1.0800000e+000
 -9.5500000e-001
 -8.8000000e-001
 -7.7500000e-001
 -7.2000000e-001
 -6.6000000e-001
 -6.6000000e-001
 -6.3000000e-001
 -6.0000000e-001
 -5.9500000e-001
 -5.5000000e-001
 -5.8000000e-001
 -5.9000000e-001
 -5.8000000e-001
 -5.4500000e-001
 -5.5000000e-001
 -5.1500000e-001
 -5.1000000e-001
 -4.9000000e-001
 -4.9000000e-001
 -4.8000000e-001
 -4.4500000e-001
 -4.4000000e-001
 -4.5500000e-001
 -4.4000000e-001
 -4.2000000e-001
 -3.7000000e-001
 -3.3500000e-001
 -3.2000000e-001
 -3.4000000e-001
 -3.1500000e-001
 -2.9000000e-001
 -2.8000000e-001
 -2.5000000e-001
 -2.3000000e-001
 -2.0500000e-001
 -2.0500000e-001
 -1.9500000e-001
 -1.8000000e-001
 -1.7500000e-001
 -1.7000000e-001
 -1.9500000e-001
 -1.9000000e-001
 -1.6500000e-001
 -1.7000000e-001
 -1.8500000e-001
 -2.0000000e-001
 -2.0500000e-001
 -2.1000000e-001
 -2.5000000e-001
 -2.5000000e-001
 -3.0000000e-001
 -3.1000000e-001
 -3.4000000e-001
 -3.4000000e-001
 -3.7500000e-001
 -3.8000000e-001
 -4.1500000e-001
 -4.3500000e-001
 -4.1500000e-001
 -4.2500000e-001
 -4.4000000e-001
 -4.4000000e-001
 -4.0500000e-001
 -4.7000000e-001
 -5.1500000e-001
 -5.2500000e-001
 -5.2000000e-001
 -4.9000000e-001
 -4.6500000e-001
 -4.6000000e-001
 -4.9500000e-001
 -4.7000000e-001
 -4.5500000e-001
 -4.4000000e-001
 -4.1000000e-001
 -3.6500000e-001
 -3.4000000e-001
 -3.3000000e-001
 -3.7000000e-001
 -3.6000000e-001
 -3.6500000e-001
 -3.5000000e-001
 -3.4000000e-001
 -3.5500000e-001
 -4.1500000e-001
 -4.6500000e-001
 -4.8500000e-001
 -5.1500000e-001
 -5.4500000e-001
 -5.3500000e-001
 -5.1500000e-001
 -5.1500000e-001
 -5.2500000e-001
 -5.1000000e-001
 -5.0000000e-001
 -4.9000000e-001
 -5.0000000e-001
 -5.0500000e-001
 -5.0000000e-001
 -4.9000000e-001
 -4.7500000e-001
 -4.7500000e-001
 -4.8500000e-001
 -4.9500000e-001
 -5.3000000e-001
 -5.4000000e-001
 -5.2000000e-001
 -5.1000000e-001
 -5.0500000e-001
 -4.8500000e-001
 -5.0500000e-001
 -5.0500000e-001
 -5.1500000e-001
 -5.1000000e-001
 -5.0500000e-001
 -4.7000000e-001
 -4.6500000e-001
 -4.4500000e-001
 -4.4500000e-001
 -4.0500000e-001
 -3.7000000e-001
 -3.8500000e-001
 -3.9000000e-001
 -3.7000000e-001
 -3.1500000e-001
 -1.8500000e-001
 -7.5000000e-002
 -6.5000000e-002
 -2.2000000e-001
 -5.0500000e-001
 -8.1500000e-001
 -1.1500000e+000
 -1.5100000e+000
 -1.8600000e+000
 -2.0700000e+000
 -2.2550000e+000
 -2.3300000e+000
 -2.2750000e+000
 -1.9650000e+000
 -1.6250000e+000
 -1.3350000e+000
 -1.1250000e+000
 -9.6500000e-001
 -8.4500000e-001
 -7.7000000e-001
 -7.1500000e-001
 -6.7000000e-001
 -6.1500000e-001
 -5.5000000e-001
 -5.4000000e-001
 -5.3000000e-001
 -5.5000000e-001
 -5.3500000e-001
 -4.8500000e-001
 -4.8000000e-001
 -4.4000000e-001
 -4.1000000e-001
 -4.1500000e-001
 -4.4000000e-001
 -4.5000000e-001
 -4.5500000e-001
 -4.2000000e-001
 -3.9000000e-001
 -3.6000000e-001
 -3.2000000e-001
 -3.2000000e-001
 -3.1500000e-001
 -3.2000000e-001
 -3.1000000e-001
 -2.8000000e-001
 -2.4000000e-001
 -2.1000000e-001
 -2.2000000e-001
 -2.2000000e-001
 -2.0500000e-001
 -1.7500000e-001
 -1.6000000e-001
 -9.0000000e-002
 -7.5000000e-002
 -1.1500000e-001
 -1.4500000e-001
 -1.6000000e-001
 -1.1500000e-001
 -1.3500000e-001
 -1.0000000e-001
 -1.4500000e-001
 -1.3500000e-001
 -1.4000000e-001
 -1.8000000e-001
 -1.4500000e-001
 -1.8000000e-001
 -2.0500000e-001
 -2.3500000e-001
 -2.1500000e-001
 -2.3000000e-001
 -2.6000000e-001
 -2.9500000e-001
 -3.0000000e-001
 -3.1500000e-001
 -3.4000000e-001
 -3.6000000e-001
 -3.6500000e-001
 -3.8000000e-001
 -3.8500000e-001
 -3.5500000e-001
 -3.2500000e-001
 -3.2500000e-001
 -3.6500000e-001
 -4.7000000e-001
 -5.2500000e-001
 -5.3000000e-001
 -5.0000000e-001
 -4.8500000e-001
 -4.6500000e-001
 -4.3000000e-001
 -4.2000000e-001
 -3.8500000e-001
 -3.7500000e-001
 -3.0000000e-001
 -2.7000000e-001
 -2.1000000e-001
 -1.8000000e-001
 -1.8500000e-001
 -1.8000000e-001
 -2.6000000e-001
 -3.5500000e-001
 -3.7000000e-001
 -3.8500000e-001
 -3.8500000e-001
 -4.2500000e-001
 -4.4000000e-001
 -4.4000000e-001
 -4.0000000e-001
 -4.5500000e-001
 -4.6500000e-001
 -4.9500000e-001
 -4.6500000e-001
 -4.4500000e-001
 -4.0500000e-001
 -4.2500000e-001
 -4.3000000e-001
 -4.5000000e-001
 -4.5000000e-001
 -4.3000000e-001
 -4.0500000e-001
 -4.0000000e-001
 -3.9500000e-001
 -3.9500000e-001
 -4.4500000e-001
 -4.5000000e-001
 -4.6000000e-001
 -4.5000000e-001
 -4.4500000e-001
 -4.5500000e-001
 -4.4000000e-001
 -4.5500000e-001
 -4.8500000e-001
 -4.5500000e-001
 -4.5000000e-001
 -4.3500000e-001
 -3.9500000e-001
 -3.9000000e-001
 -3.9000000e-001
 -3.9000000e-001
 -3.7500000e-001
 -3.6500000e-001
 -3.2000000e-001
 -2.0500000e-001
 -8.5000000e-002
 -8.0000000e-002
 -2.3500000e-001
 -5.5000000e-001
 -8.9500000e-001
 -1.2200000e+000
 -1.5800000e+000
 -1.9200000e+000
 -2.2050000e+000
 -2.4150000e+000
 -2.5450000e+000
 -2.5350000e+000
 -2.3100000e+000
 -1.9500000e+000
 -1.6100000e+000
 -1.3050000e+000
 -1.1000000e+000
 -9.7500000e-001
 -8.7000000e-001
 -7.7000000e-001
 -6.8000000e-001
 -6.2000000e-001
 -5.6000000e-001
 -5.0500000e-001
 -5.0000000e-001
