 -6.4500000e-001
 -6.3500000e-001
 -6.4500000e-001
 -6.3500000e-001
 -6.4500000e-001
 -6.3000000e-001
 -6.3000000e-001
 -6.3500000e-001
 -6.2500000e-001
 -6.4500000e-001
 -6.3000000e-001
 -6.2000000e-001
 -6.2000000e-001
 -6.1000000e-001
 -6.2000000e-001
 -5.9500000e-001
 -5.8500000e-001
 -5.9000000e-001
 -5.8500000e-001
 -5.6500000e-001
 -5.7000000e-001
 -5.5500000e-001
 -5.3000000e-001
 -5.0000000e-001
 -4.7500000e-001
 -4.6500000e-001
 -4.6000000e-001
 -4.6000000e-001
 -4.5000000e-001
 -4.4500000e-001
 -4.3000000e-001
 -4.1500000e-001
 -4.0000000e-001
 -3.8000000e-001
 -3.8000000e-001
 -4.0000000e-001
 -4.1500000e-001
 -4.0500000e-001
 -4.2000000e-001
 -4.2000000e-001
 -4.1500000e-001
 -4.2500000e-001
 -4.1500000e-001
 -4.3000000e-001
 -4.4000000e-001
 -4.3500000e-001
 -4.5500000e-001
 -4.6500000e-001
 -4.7000000e-001
 -4.7500000e-001
 -4.5000000e-001
 -4.6500000e-001
 -4.6500000e-001
 -4.6500000e-001
 -4.8500000e-001
 -4.7000000e-001
 -4.9000000e-001
 -5.0000000e-001
 -4.9500000e-001
 -5.0000000e-001
 -5.1000000e-001
 -5.1500000e-001
 -5.1500000e-001
 -5.2000000e-001
 -5.2500000e-001
 -5.1000000e-001
 -5.2000000e-001
 -5.0500000e-001
 -5.0000000e-001
 -4.9000000e-001
 -4.8000000e-001
 -5.2500000e-001
 -5.1500000e-001
 -5.2500000e-001
 -5.1500000e-001
 -5.1000000e-001
 -5.0000000e-001
 -5.0000000e-001
 -4.7500000e-001
 -4.8500000e-001
 -4.8000000e-001
 -5.0000000e-001
 -5.0500000e-001
 -4.8000000e-001
 -4.7500000e-001
 -4.8500000e-001
 -4.7500000e-001
 -4.7000000e-001
 -4.9500000e-001
 -4.8500000e-001
 -5.0000000e-001
 -4.7500000e-001
 -4.6500000e-001
 -4.4500000e-001
 -4.1000000e-001
 -3.9500000e-001
 -3.7000000e-001
 -3.4500000e-001
 -3.4500000e-001
 -3.4000000e-001
 -3.4000000e-001
 -3.3000000e-001
 -3.1500000e-001
 -2.9500000e-001
 -2.5000000e-001
 -2.3000000e-001
 -2.5000000e-001
 -2.6000000e-001
 -3.0000000e-001
 -3.0500000e-001
 -3.4000000e-001
 -3.3500000e-001
 -3.4500000e-001
 -3.6000000e-001
 -3.6000000e-001
 -3.7500000e-001
 -3.8500000e-001
 -4.1000000e-001
 -4.2000000e-001
 -4.3500000e-001
 -4.5500000e-001
 -4.7500000e-001
 -4.8500000e-001
 -5.1000000e-001
 -5.2500000e-001
 -5.3000000e-001
 -5.4000000e-001
 -5.5000000e-001
 -5.6000000e-001
 -5.4000000e-001
 -5.4000000e-001
 -5.3000000e-001
 -5.3000000e-001
 -5.2000000e-001
 -5.2500000e-001
 -5.1500000e-001
 -5.3500000e-001
 -5.5000000e-001
 -5.5500000e-001
 -5.3500000e-001
 -4.9000000e-001
 -4.9500000e-001
 -5.0000000e-001
 -4.9500000e-001
 -4.9500000e-001
 -4.7500000e-001
 -4.5000000e-001
 -4.3000000e-001
 -3.5000000e-001
 -2.3000000e-001
 -7.0000000e-002
  9.5000000e-002
  3.1000000e-001
  4.7000000e-001
  5.5000000e-001
  5.7000000e-001
  6.0500000e-001
  5.8000000e-001
  5.0500000e-001
  4.3000000e-001
  3.6000000e-001
  3.1500000e-001
  3.0500000e-001
  3.3500000e-001
  3.4500000e-001
  3.2000000e-001
  2.7000000e-001
  1.6500000e-001
  8.0000000e-002
  6.0000000e-002
  1.3500000e-001
  2.5500000e-001
  3.1000000e-001
  2.7500000e-001
  1.1000000e-001
 -1.1000000e-001
 -2.9500000e-001
 -3.8500000e-001
 -3.9000000e-001
 -3.7500000e-001
 -3.7500000e-001
 -4.5500000e-001
 -5.4000000e-001
 -5.8500000e-001
 -5.8500000e-001
 -5.6500000e-001
 -5.5000000e-001
 -5.3500000e-001
 -5.4000000e-001
 -5.4000000e-001
 -5.4000000e-001
 -5.6000000e-001
 -5.3500000e-001
 -5.5000000e-001
 -5.6000000e-001
 -5.4000000e-001
 -5.4000000e-001
 -5.3500000e-001
 -5.3000000e-001
 -5.6000000e-001
 -5.5500000e-001
 -5.7000000e-001
 -5.5500000e-001
 -5.7500000e-001
 -5.7000000e-001
 -5.7500000e-001
 -5.5500000e-001
 -5.7000000e-001
 -5.9000000e-001
 -6.0000000e-001
 -6.0000000e-001
 -6.1000000e-001
 -6.2000000e-001
 -6.1000000e-001
 -6.4000000e-001
 -6.2000000e-001
 -6.2000000e-001
 -6.4000000e-001
 -6.3500000e-001
 -6.3500000e-001
 -6.6500000e-001
 -6.4500000e-001
 -6.5500000e-001
 -6.4000000e-001
 -6.5000000e-001
 -6.4500000e-001
 -6.6500000e-001
 -6.6500000e-001
 -6.7500000e-001
 -6.7500000e-001
 -6.7500000e-001
 -6.5500000e-001
 -6.6000000e-001
 -6.4500000e-001
 -6.2500000e-001
 -6.5000000e-001
 -6.6500000e-001
 -6.7500000e-001
 -6.6500000e-001
 -6.4500000e-001
 -6.4000000e-001
 -6.2500000e-001
 -6.0500000e-001
 -6.1500000e-001
 -6.1000000e-001
 -5.9500000e-001
 -5.9000000e-001
 -5.8500000e-001
 -5.8000000e-001
 -5.5500000e-001
 -5.4000000e-001
 -5.1000000e-001
 -4.8500000e-001
 -4.8000000e-001
 -4.5500000e-001
 -4.5000000e-001
 -4.4500000e-001
 -4.3500000e-001
 -4.3000000e-001
 -4.0500000e-001
 -3.9000000e-001
 -4.1500000e-001
 -4.2500000e-001
 -4.2000000e-001
 -4.2500000e-001
 -4.0000000e-001
 -4.1000000e-001
 -4.0000000e-001
 -3.9500000e-001
 -4.0500000e-001
 -4.2000000e-001
 -4.3000000e-001
 -4.3000000e-001
 -4.4000000e-001
 -4.5000000e-001
 -4.4500000e-001
 -4.3500000e-001
 -4.3500000e-001
 -4.2000000e-001
 -4.4500000e-001
 -4.4000000e-001
 -4.3500000e-001
 -4.4000000e-001
 -4.5000000e-001
 -4.6500000e-001
 -4.7000000e-001
 -4.6500000e-001
 -4.4500000e-001
 -4.7000000e-001
 -4.5500000e-001
 -4.8000000e-001
 -4.7000000e-001
 -4.6000000e-001
 -4.5000000e-001
 -4.6500000e-001
 -4.5000000e-001
 -4.1500000e-001
 -4.2500000e-001
 -4.3000000e-001
 -4.4500000e-001
 -4.4000000e-001
 -4.4500000e-001
 -4.4000000e-001
 -4.3000000e-001
 -4.3500000e-001
 -4.2500000e-001
 -4.3500000e-001
 -4.3500000e-001
 -4.5000000e-001
 -4.6000000e-001
 -4.4000000e-001
 -4.5000000e-001
 -4.0000000e-001
 -4.1000000e-001
 -4.2500000e-001
 -4.1000000e-001
 -4.2000000e-001
 -3.8000000e-001
 -3.9000000e-001
 -3.5500000e-001
 -3.2500000e-001
 -3.0000000e-001
 -2.7500000e-001
 -2.6500000e-001
 -2.6000000e-001
 -2.5000000e-001
 -2.4500000e-001
 -2.3500000e-001
 -2.1500000e-001
 -1.8500000e-001
 -1.7500000e-001
 -1.9500000e-001
 -2.3000000e-001
 -2.5000000e-001
 -2.6000000e-001
 -2.7000000e-001
 -2.8000000e-001
 -3.1500000e-001
 -3.4000000e-001
 -3.3500000e-001
 -3.2500000e-001
 -3.4000000e-001
 -3.6500000e-001
 -3.8500000e-001
 -4.2500000e-001
 -4.5000000e-001
 -4.6500000e-001
 -4.7000000e-001
 -4.8000000e-001
 -4.7000000e-001
 -4.8000000e-001
 -4.8000000e-001
 -4.8500000e-001
 -4.8000000e-001
 -4.7000000e-001
 -4.7500000e-001
 -4.9500000e-001
 -4.7000000e-001
 -4.6500000e-001
 -4.6000000e-001
 -4.7000000e-001
 -4.8500000e-001
 -4.8000000e-001
 -4.9000000e-001
 -4.8000000e-001
 -4.7000000e-001
 -4.5500000e-001
 -4.5500000e-001
 -4.6000000e-001
 -4.3000000e-001
 -4.1500000e-001
 -3.7000000e-001
 -3.1500000e-001
 -2.4000000e-001
 -1.2000000e-001
  6.5000000e-002
  3.0000000e-001
  5.0500000e-001
  6.0000000e-001
  7.0000000e-001
  7.4000000e-001
  7.4500000e-001
  6.7000000e-001
  5.9000000e-001
  5.1000000e-001
  4.4500000e-001
  4.3000000e-001
  4.3500000e-001
  4.4500000e-001
  4.3500000e-001
  3.6000000e-001
  2.3500000e-001
  1.2500000e-001
  7.5000000e-002
  1.5000000e-001
  3.1000000e-001
  3.9000000e-001
  3.8000000e-001
  2.2000000e-001
  0.0000000e+000
 -2.0500000e-001
 -3.3500000e-001
 -4.0000000e-001
 -4.1000000e-001
 -4.1500000e-001
 -4.8000000e-001
 -5.2000000e-001
 -5.6000000e-001
 -5.7500000e-001
 -5.6000000e-001
 -5.6500000e-001
 -5.7000000e-001
 -5.6500000e-001
 -5.5500000e-001
 -5.4000000e-001
 -5.5500000e-001
 -5.3000000e-001
 -5.4500000e-001
 -5.6000000e-001
 -5.7500000e-001
 -5.8000000e-001
 -5.6000000e-001
 -5.5000000e-001
 -5.3000000e-001
 -5.3000000e-001
 -5.5500000e-001
 -5.6500000e-001
 -5.8000000e-001
 -5.9500000e-001
 -5.9000000e-001
 -6.0000000e-001
 -5.8000000e-001
 -5.6500000e-001
 -5.9500000e-001
 -6.0000000e-001
 -6.0000000e-001
 -6.1500000e-001
 -6.2500000e-001
 -6.3500000e-001
 -6.1500000e-001
 -6.2000000e-001
 -6.3000000e-001
 -6.3500000e-001
 -6.6500000e-001
 -6.7000000e-001
 -6.8000000e-001
 -6.6000000e-001
 -6.7000000e-001
 -6.9000000e-001
 -6.7000000e-001
 -6.7500000e-001
 -6.9000000e-001
 -6.9500000e-001
 -6.9500000e-001
 -7.0500000e-001
 -7.2500000e-001
 -7.0500000e-001
 -6.8500000e-001
 -6.9500000e-001
 -6.9000000e-001
 -6.6000000e-001
 -6.6000000e-001
 -6.7000000e-001
 -6.8500000e-001
 -6.7000000e-001
 -6.7000000e-001
 -6.4000000e-001
 -6.5000000e-001
 -6.5500000e-001
 -6.5000000e-001
 -6.1000000e-001
 -6.0500000e-001
 -5.9000000e-001
 -5.6000000e-001
 -5.5500000e-001
 -5.3000000e-001
 -5.0000000e-001
 -4.7000000e-001
 -4.8000000e-001
 -4.4500000e-001
 -4.2000000e-001
 -4.2500000e-001
 -4.3000000e-001
 -4.0500000e-001
 -3.8500000e-001
 -3.7500000e-001
 -3.7000000e-001
 -3.6000000e-001
 -3.4500000e-001
 -3.6000000e-001
 -3.5500000e-001
 -3.7500000e-001
 -3.9000000e-001
 -3.7000000e-001
 -3.5500000e-001
 -3.7000000e-001
 -3.6000000e-001
 -3.6500000e-001
 -3.8500000e-001
 -4.0000000e-001
 -4.2500000e-001
 -4.2000000e-001
 -4.3500000e-001
 -4.1000000e-001
 -4.0500000e-001
 -4.0000000e-001
 -4.2000000e-001
 -4.1500000e-001
 -4.0500000e-001
 -4.2500000e-001
 -4.3500000e-001
 -4.3000000e-001
 -4.3500000e-001
 -4.3500000e-001
 -4.4000000e-001
 -4.0500000e-001
 -4.2500000e-001
 -4.3000000e-001
 -4.3500000e-001
 -4.5000000e-001
 -4.4000000e-001
 -4.3500000e-001
 -4.2500000e-001
 -4.2500000e-001
 -3.8500000e-001
 -3.8500000e-001
 -4.0000000e-001
 -4.1000000e-001
 -4.4000000e-001
 -4.1500000e-001
 -4.2000000e-001
 -3.9000000e-001
 -3.8000000e-001
 -3.9500000e-001
 -3.8500000e-001
 -3.9500000e-001
 -3.8500000e-001
 -4.0000000e-001
 -4.1000000e-001
 -4.1000000e-001
 -4.0500000e-001
 -3.8500000e-001
 -3.9000000e-001
 -4.0000000e-001
 -3.9000000e-001
 -3.9000000e-001
 -3.8000000e-001
 -3.5000000e-001
 -3.3500000e-001
 -3.1500000e-001
 -2.7500000e-001
 -2.4500000e-001
 -2.2500000e-001
 -2.3000000e-001
 -2.2000000e-001
 -2.2500000e-001
 -1.9500000e-001
 -1.5500000e-001
 -1.2500000e-001
 -1.3500000e-001
 -1.1000000e-001
 -1.3500000e-001
 -1.9000000e-001
 -1.9500000e-001
 -2.0500000e-001
 -2.2500000e-001
 -2.3000000e-001
 -2.2500000e-001
 -2.3500000e-001
 -2.5500000e-001
 -2.6000000e-001
 -2.8000000e-001
 -3.1000000e-001
 -3.3000000e-001
 -3.6000000e-001
 -3.7000000e-001
 -4.0000000e-001
 -3.9000000e-001
 -3.8000000e-001
 -4.0000000e-001
 -4.0500000e-001
 -4.1500000e-001
 -4.2000000e-001
 -4.3500000e-001
 -4.0000000e-001
 -3.9000000e-001
 -3.8500000e-001
 -3.8500000e-001
 -3.8500000e-001
 -4.1500000e-001
 -4.0000000e-001
 -4.0500000e-001
 -4.2000000e-001
 -4.0000000e-001
 -3.8500000e-001
 -3.7000000e-001
 -3.8000000e-001
 -3.8000000e-001
 -3.8500000e-001
 -3.7500000e-001
 -3.6000000e-001
 -3.4000000e-001
 -2.8500000e-001
 -2.0500000e-001
 -9.0000000e-002
  8.5000000e-002
  2.6500000e-001
  4.3000000e-001
  5.3000000e-001
  5.7500000e-001
  6.1500000e-001
  5.9500000e-001
  5.9000000e-001
  5.1500000e-001
  4.7000000e-001
  4.4500000e-001
  4.4500000e-001
  4.7500000e-001
  4.7500000e-001
  4.7500000e-001
  4.5500000e-001
  3.9000000e-001
  2.7500000e-001
  2.0000000e-001
  2.1000000e-001
  3.2500000e-001
  4.5000000e-001
  5.1500000e-001
  4.2000000e-001
  2.4000000e-001
  2.5000000e-002
 -1.5500000e-001
 -2.6500000e-001
 -2.8500000e-001
 -2.9000000e-001
 -3.2500000e-001
 -3.7000000e-001
 -4.1000000e-001
 -4.7000000e-001
 -4.5500000e-001
 -4.6000000e-001
 -4.4500000e-001
 -4.4000000e-001
 -4.3500000e-001
 -4.2500000e-001
 -4.2000000e-001
 -4.4000000e-001
 -4.4500000e-001
 -4.5500000e-001
 -4.5500000e-001
 -4.3500000e-001
 -4.3500000e-001
 -4.2500000e-001
 -4.1500000e-001
 -4.0500000e-001
 -4.3500000e-001
 -4.3500000e-001
 -4.7500000e-001
 -4.7000000e-001
 -4.6500000e-001
 -4.4000000e-001
 -4.5000000e-001
 -4.7000000e-001
 -4.7500000e-001
 -4.9500000e-001
 -5.2000000e-001
 -5.1500000e-001
 -5.0500000e-001
 -5.1000000e-001
 -5.2000000e-001
 -5.1500000e-001
 -5.2000000e-001
 -5.5500000e-001
 -5.5500000e-001
 -5.6500000e-001
 -5.7000000e-001
 -5.9000000e-001
 -5.7000000e-001
 -5.7000000e-001
 -5.7000000e-001
 -5.6500000e-001
 -5.5500000e-001
 -5.8000000e-001
 -5.8500000e-001
 -6.1000000e-001
 -6.2000000e-001
 -6.1000000e-001
 -6.0500000e-001
 -5.8500000e-001
 -6.0500000e-001
 -5.9000000e-001
 -5.8000000e-001
 -5.9000000e-001
 -5.9500000e-001
 -5.9500000e-001
 -5.8000000e-001
 -5.4500000e-001
 -5.3500000e-001
 -5.3500000e-001
 -5.5000000e-001
 -5.3500000e-001
 -5.3500000e-001
 -5.0500000e-001
 -4.9000000e-001
 -4.6500000e-001
 -4.4500000e-001
 -4.2000000e-001
 -4.1000000e-001
 -3.9000000e-001
 -3.9500000e-001
 -3.9000000e-001
 -3.7000000e-001
 -3.4500000e-001
 -3.4500000e-001
 -3.2000000e-001
 -3.1500000e-001
 -3.0500000e-001
 -3.1000000e-001
 -3.1500000e-001
 -3.2000000e-001
 -3.2500000e-001
 -3.1500000e-001
 -3.4000000e-001
 -3.4500000e-001
 -3.4000000e-001
 -3.2000000e-001
 -3.4000000e-001
 -3.4500000e-001
 -3.5500000e-001
 -3.5000000e-001
 -3.5500000e-001
 -3.7000000e-001
 -3.8000000e-001
 -3.6000000e-001
 -3.7000000e-001
 -3.8000000e-001
 -3.9000000e-001
 -3.8500000e-001
 -4.1000000e-001
 -4.1000000e-001
 -4.0500000e-001
 -3.9000000e-001
 -3.9500000e-001
 -4.1500000e-001
 -3.9500000e-001
 -4.2000000e-001
 -4.2500000e-001
 -4.2000000e-001
 -4.1500000e-001
 -4.1000000e-001
 -4.2500000e-001
 -4.3500000e-001
 -4.3000000e-001
 -4.1000000e-001
 -4.1000000e-001
 -4.3500000e-001
 -4.3000000e-001
 -4.3500000e-001
 -4.1000000e-001
 -4.2500000e-001
 -4.1500000e-001
 -4.1500000e-001
 -4.1500000e-001
 -4.3000000e-001
 -4.2500000e-001
 -4.3000000e-001
 -4.2000000e-001
 -4.1000000e-001
 -4.1500000e-001
 -4.0500000e-001
 -3.7000000e-001
 -3.8000000e-001
 -3.8000000e-001
 -4.1500000e-001
 -4.1000000e-001
 -3.9000000e-001
 -3.7500000e-001
 -3.5000000e-001
 -3.3000000e-001
 -3.0000000e-001
 -2.9500000e-001
 -2.9500000e-001
 -2.7500000e-001
 -2.7000000e-001
 -2.5000000e-001
 -2.3000000e-001
 -2.1500000e-001
 -1.9500000e-001
 -1.5500000e-001
 -1.5500000e-001
 -1.8500000e-001
 -2.0000000e-001
 -2.3000000e-001
 -2.4000000e-001
 -2.3500000e-001
 -2.5000000e-001
 -2.8500000e-001
 -2.9500000e-001
 -2.9500000e-001
 -2.9000000e-001
 -3.1500000e-001
 -3.4500000e-001
 -3.7500000e-001
 -3.9000000e-001
 -4.1500000e-001
 -4.2500000e-001
 -4.4000000e-001
 -4.4000000e-001
 -4.5000000e-001
 -4.6000000e-001
 -4.7000000e-001
 -4.8500000e-001
 -4.8500000e-001
 -4.6500000e-001
 -4.7000000e-001
 -4.5000000e-001
 -4.4500000e-001
 -4.7000000e-001
 -4.3000000e-001
 -4.6000000e-001
 -4.5000000e-001
 -4.7000000e-001
 -4.5000000e-001
 -4.5000000e-001
 -4.3000000e-001
 -4.3000000e-001
 -4.3000000e-001
 -4.2000000e-001
 -4.1500000e-001
 -4.0500000e-001
 -3.8500000e-001
 -3.2000000e-001
 -2.2500000e-001
 -1.2000000e-001
  4.5000000e-002
  2.5000000e-001
  4.3500000e-001
  5.9000000e-001
  6.7500000e-001
  7.0500000e-001
  7.2000000e-001
  7.0500000e-001
  6.2000000e-001
  5.2500000e-001
  4.7000000e-001
  4.3000000e-001
  4.2000000e-001
  4.2000000e-001
  4.4000000e-001
  4.1500000e-001
  3.7000000e-001
  2.3500000e-001
  1.5000000e-001
  1.3500000e-001
  2.3500000e-001
  3.9000000e-001
  4.3000000e-001
  3.3000000e-001
  1.5500000e-001
 -8.0000000e-002
 -2.4500000e-001
 -3.1000000e-001
 -3.2000000e-001
 -3.2500000e-001
 -3.7000000e-001
 -4.2500000e-001
 -5.0500000e-001
 -5.1000000e-001
 -5.1500000e-001
 -5.0500000e-001
 -5.0500000e-001
 -4.7000000e-001
 -4.8500000e-001
 -4.8500000e-001
 -5.0000000e-001
 -4.9500000e-001
 -5.0000000e-001
 -4.8500000e-001
 -4.4500000e-001
 -4.6000000e-001
 -4.6000000e-001
 -4.6500000e-001
 -4.8000000e-001
 -5.0000000e-001
 -5.1500000e-001
 -5.3000000e-001
 -5.3000000e-001
 -5.2500000e-001
 -5.0500000e-001
 -5.1000000e-001
 -5.2000000e-001
 -5.2000000e-001
 -5.5000000e-001
 -5.6000000e-001
 -5.6500000e-001
 -5.4500000e-001
 -5.6000000e-001
 -5.6000000e-001
 -5.5500000e-001
 -5.6000000e-001
 -5.8000000e-001
 -5.7500000e-001
 -5.7500000e-001
 -6.1500000e-001
 -6.2000000e-001
 -6.1500000e-001
 -6.3500000e-001
 -6.3000000e-001
 -6.3000000e-001
 -6.3000000e-001
 -6.5000000e-001
 -6.5500000e-001
 -6.4500000e-001
 -6.4000000e-001
 -6.4500000e-001
 -6.3500000e-001
 -6.1000000e-001
 -6.0000000e-001
 -6.1500000e-001
 -6.1500000e-001
 -6.3500000e-001
 -6.2000000e-001
 -6.2500000e-001
 -6.1000000e-001
 -6.1500000e-001
 -5.9500000e-001
 -5.9500000e-001
 -5.8000000e-001
 -5.7000000e-001
 -5.6000000e-001
 -5.6500000e-001
 -5.4500000e-001
 -5.4500000e-001
 -4.9500000e-001
 -4.8000000e-001
 -4.2000000e-001
 -4.4500000e-001
 -4.4500000e-001
 -4.3500000e-001
 -4.1500000e-001
 -3.9500000e-001
 -4.0000000e-001
 -3.7500000e-001
 -3.5500000e-001
 -3.5500000e-001
 -3.6000000e-001
 -3.5500000e-001
 -3.6000000e-001
 -3.8000000e-001
 -3.5000000e-001
 -3.3500000e-001
 -3.1500000e-001
 -3.5500000e-001
 -3.8000000e-001
 -3.6500000e-001
 -3.9000000e-001
 -4.1500000e-001
 -4.1500000e-001
 -4.1500000e-001
 -4.0000000e-001
 -3.9000000e-001
 -3.7500000e-001
 -3.8500000e-001
 -4.1500000e-001
 -4.1000000e-001
 -4.1500000e-001
 -4.2000000e-001
 -4.4500000e-001
 -4.2500000e-001
 -3.9000000e-001
 -3.9500000e-001
 -3.9000000e-001
 -4.0000000e-001
 -3.7500000e-001
 -4.1000000e-001
 -4.0000000e-001
 -4.0500000e-001
 -4.1000000e-001
 -4.0000000e-001
 -4.0500000e-001
 -4.0000000e-001
 -3.9500000e-001
 -4.0500000e-001
 -4.2000000e-001
 -4.1000000e-001
 -4.0000000e-001
 -3.7500000e-001
 -3.5500000e-001
 -3.6500000e-001
 -3.7500000e-001
 -3.7500000e-001
 -3.6500000e-001
 -4.0000000e-001
 -3.9000000e-001
 -3.7500000e-001
 -3.7000000e-001
 -3.4500000e-001
 -3.6000000e-001
 -3.3500000e-001
 -3.2000000e-001
 -3.2500000e-001
 -3.3500000e-001
 -3.3500000e-001
 -3.2500000e-001
 -2.9000000e-001
 -2.6500000e-001
 -2.3500000e-001
 -2.0500000e-001
 -2.0500000e-001
 -1.9500000e-001
 -2.0500000e-001
 -1.7500000e-001
 -1.6000000e-001
 -1.3000000e-001
 -1.1000000e-001
 -1.0500000e-001
 -1.1000000e-001
 -1.3000000e-001
 -1.4500000e-001
 -1.9500000e-001
 -2.0500000e-001
 -1.9500000e-001
 -2.1500000e-001
 -2.1500000e-001
 -2.2000000e-001
 -2.3500000e-001
 -2.5000000e-001
 -2.7500000e-001
 -3.0500000e-001
 -3.2500000e-001
 -3.7000000e-001
 -3.9500000e-001
 -4.1000000e-001
 -3.9500000e-001
 -4.0500000e-001
 -4.0000000e-001
 -4.1000000e-001
 -4.1000000e-001
 -4.2500000e-001
 -4.2000000e-001
 -4.1500000e-001
 -3.9500000e-001
 -3.8500000e-001
 -3.8000000e-001
 -3.8000000e-001
 -3.8000000e-001
 -4.0500000e-001
 -4.0000000e-001
 -4.1000000e-001
 -4.0000000e-001
 -4.0000000e-001
 -3.8500000e-001
 -3.7000000e-001
 -3.6500000e-001
 -3.5000000e-001
 -3.4000000e-001
 -3.0500000e-001
 -2.5000000e-001
 -1.7500000e-001
 -4.5000000e-002
  1.3500000e-001
  3.5500000e-001
  5.4500000e-001
  7.0000000e-001
  7.9500000e-001
  8.7000000e-001
  8.7000000e-001
  8.2500000e-001
  7.5500000e-001
  6.4000000e-001
  5.5500000e-001
  5.4500000e-001
  5.5500000e-001
  5.6500000e-001
  5.6000000e-001
  4.7500000e-001
  3.7000000e-001
  2.6500000e-001
  1.9000000e-001
  2.3000000e-001
  3.8500000e-001
  4.9500000e-001
  4.8000000e-001
  3.3000000e-001
  1.0500000e-001
 -1.2000000e-001
 -2.5500000e-001
 -3.0500000e-001
 -3.1500000e-001
 -3.2000000e-001
 -3.7000000e-001
 -4.3500000e-001
 -4.8500000e-001
 -5.0500000e-001
 -5.0500000e-001
 -4.8000000e-001
 -4.5500000e-001
 -4.6000000e-001
 -4.6000000e-001
 -4.7000000e-001
 -4.7000000e-001
 -4.8000000e-001
 -4.8000000e-001
 -4.7500000e-001
 -4.7000000e-001
 -4.8500000e-001
 -4.8000000e-001
 -4.8000000e-001
 -4.7500000e-001
 -4.8500000e-001
 -4.9500000e-001
 -5.0000000e-001
 -4.8500000e-001
 -5.0000000e-001
 -5.1000000e-001
 -5.1500000e-001
 -5.0000000e-001
 -5.2000000e-001
 -5.3000000e-001
 -5.2000000e-001
 -5.6000000e-001
 -5.7000000e-001
 -5.8000000e-001
 -5.7000000e-001
 -5.6500000e-001
 -5.4000000e-001
 -5.7000000e-001
 -5.7000000e-001
 -5.9500000e-001
 -5.8000000e-001
 -6.0000000e-001
 -6.1000000e-001
 -6.2000000e-001
 -6.3000000e-001
 -6.2500000e-001
 -6.3500000e-001
 -6.3500000e-001
 -6.5500000e-001
 -6.4500000e-001
 -6.3500000e-001
 -6.4000000e-001
 -6.4000000e-001
 -6.4000000e-001
 -6.2500000e-001
 -6.5500000e-001
 -6.4000000e-001
 -6.4000000e-001
 -6.4000000e-001
 -6.4000000e-001
 -6.2500000e-001
 -6.3000000e-001
 -6.0500000e-001
 -5.8500000e-001
 -5.7500000e-001
 -5.8500000e-001
 -5.7500000e-001
 -5.5000000e-001
 -5.3500000e-001
 -5.2500000e-001
 -5.2000000e-001
 -4.9000000e-001
 -4.7500000e-001
 -4.4000000e-001
 -4.1000000e-001
 -4.2500000e-001
 -4.1500000e-001
 -3.9000000e-001
 -3.8000000e-001
 -3.6500000e-001
 -3.5000000e-001
 -3.5000000e-001
 -3.4000000e-001
 -3.4500000e-001
 -3.5500000e-001
 -3.6000000e-001
 -3.4000000e-001
 -3.6000000e-001
 -3.5000000e-001
 -3.3000000e-001
 -3.4500000e-001
 -3.3000000e-001
 -3.4000000e-001
 -3.5500000e-001
 -3.5500000e-001
 -3.8000000e-001
 -3.7500000e-001
 -3.9000000e-001
 -3.8500000e-001
 -3.7500000e-001
 -3.6500000e-001
 -3.8500000e-001
 -4.0500000e-001
 -4.0000000e-001
 -4.1500000e-001
 -4.1000000e-001
 -4.2500000e-001
 -4.1500000e-001
 -4.1000000e-001
 -3.9000000e-001
 -4.1500000e-001
 -4.4000000e-001
 -4.5500000e-001
 -4.2500000e-001
 -4.4500000e-001
 -4.3000000e-001
 -4.1000000e-001
 -3.9500000e-001
 -4.0000000e-001
 -4.3000000e-001
 -4.3500000e-001
 -4.2500000e-001
 -4.3000000e-001
 -4.1500000e-001
 -4.2000000e-001
 -4.1000000e-001
 -4.0000000e-001
 -4.1500000e-001
 -4.0500000e-001
 -4.0000000e-001
 -4.1500000e-001
 -4.1500000e-001
 -4.3000000e-001
 -4.1500000e-001
 -4.1500000e-001
 -3.9500000e-001
 -3.8500000e-001
 -3.8500000e-001
 -3.9500000e-001
 -4.0500000e-001
 -4.1500000e-001
 -4.0000000e-001
 -3.8000000e-001
 -3.4500000e-001
 -3.0500000e-001
 -2.7500000e-001
 -2.8000000e-001
 -2.6000000e-001
 -2.5000000e-001
 -2.3000000e-001
 -2.0000000e-001
 -1.8500000e-001
 -1.8000000e-001
 -1.1000000e-001
 -1.1500000e-001
 -1.0000000e-001
 -1.2000000e-001
 -1.1500000e-001
 -1.6500000e-001
 -1.8000000e-001
 -1.9500000e-001
 -2.0000000e-001
 -2.2000000e-001
 -2.2500000e-001
 -2.1500000e-001
 -2.4500000e-001
 -2.4000000e-001
 -2.7000000e-001
 -3.2000000e-001
 -3.4000000e-001
 -3.5000000e-001
 -3.4500000e-001
 -3.8000000e-001
 -4.0000000e-001
 -3.9500000e-001
 -4.1000000e-001
 -4.1000000e-001
 -4.0500000e-001
 -4.2000000e-001
 -4.4500000e-001
 -4.1000000e-001
 -3.9500000e-001
 -4.0500000e-001
 -4.0500000e-001
 -4.1500000e-001
 -4.2000000e-001
 -4.2000000e-001
 -4.1000000e-001
 -4.0500000e-001
 -3.7500000e-001
 -3.6000000e-001
 -3.9000000e-001
 -3.8500000e-001
 -4.1000000e-001
 -3.8500000e-001
 -3.6500000e-001
 -3.6000000e-001
 -3.3500000e-001
 -2.8500000e-001
 -1.9500000e-001
 -7.0000000e-002
  8.0000000e-002
  2.5500000e-001
  4.0500000e-001
  5.5000000e-001
  6.3500000e-001
  6.7000000e-001
  7.0000000e-001
  6.7500000e-001
  6.3000000e-001
  5.5000000e-001
  4.8500000e-001
  4.7000000e-001
  4.7500000e-001
  4.8500000e-001
  5.3000000e-001
  5.1500000e-001
  4.4500000e-001
  3.5000000e-001
  2.6000000e-001
  2.2500000e-001
  3.2500000e-001
  4.6000000e-001
  4.8500000e-001
  4.2500000e-001
  2.0000000e-001
 -1.0000000e-002
 -1.9000000e-001
 -2.8000000e-001
 -2.9500000e-001
 -3.0000000e-001
 -3.3500000e-001
 -4.1500000e-001
 -4.6500000e-001
 -4.9500000e-001
 -4.7500000e-001
 -4.7000000e-001
 -4.6000000e-001
 -4.6000000e-001
 -4.4500000e-001
 -4.6000000e-001
 -4.7000000e-001
 -4.5500000e-001
 -4.7500000e-001
 -4.8000000e-001
 -4.7500000e-001
 -4.7000000e-001
 -4.6500000e-001
 -4.6500000e-001
 -4.7000000e-001
 -4.8500000e-001
 -4.8500000e-001
 -4.7000000e-001
 -4.8000000e-001
 -4.7000000e-001
 -4.5500000e-001
 -4.8500000e-001
 -5.0000000e-001
 -5.0000000e-001
 -5.1500000e-001
 -5.1500000e-001
 -5.3000000e-001
 -5.4000000e-001
 -5.5000000e-001
 -5.4000000e-001
 -5.6000000e-001
 -5.6500000e-001
 -5.9000000e-001
 -6.1000000e-001
 -6.2500000e-001
 -6.3000000e-001
 -6.2000000e-001
 -6.0500000e-001
 -6.3000000e-001
 -6.4000000e-001
 -6.3500000e-001
 -6.6000000e-001
 -6.4500000e-001
 -6.4500000e-001
 -6.6000000e-001
 -6.5500000e-001
 -6.6000000e-001
 -6.4500000e-001
 -6.5500000e-001
 -6.4500000e-001
 -6.7000000e-001
 -6.6000000e-001
 -6.5000000e-001
 -6.4000000e-001
 -6.6000000e-001
 -6.4500000e-001
 -6.2000000e-001
 -6.1500000e-001
 -6.1000000e-001
 -6.0500000e-001
 -6.1500000e-001
 -6.1000000e-001
 -5.9500000e-001
 -5.6500000e-001
 -5.5500000e-001
 -5.2500000e-001
 -4.8500000e-001
 -4.8000000e-001
 -4.6000000e-001
 -4.5500000e-001
 -4.5000000e-001
 -4.2000000e-001
 -4.1500000e-001
 -4.0000000e-001
 -3.9000000e-001
 -3.8500000e-001
 -3.5000000e-001
 -3.7000000e-001
 -3.6500000e-001
 -3.8500000e-001
 -3.8000000e-001
 -3.8500000e-001
 -3.7500000e-001
 -3.7500000e-001
 -3.6500000e-001
 -3.9500000e-001
 -4.0000000e-001
 -4.1000000e-001
 -4.2000000e-001
 -4.1500000e-001
 -4.2000000e-001
 -4.4000000e-001
 -4.3500000e-001
 -4.3500000e-001
 -4.4000000e-001
 -4.3000000e-001
 -4.6000000e-001
 -4.5500000e-001
 -4.6500000e-001
 -4.6000000e-001
 -4.7500000e-001
 -4.6000000e-001
 -4.5500000e-001
 -4.5500000e-001
 -4.7000000e-001
 -4.9500000e-001
 -5.0500000e-001
 -5.2000000e-001
 -5.2000000e-001
 -4.9500000e-001
 -4.8500000e-001
 -5.0000000e-001
 -5.0000000e-001
 -4.7000000e-001
 -4.9500000e-001
 -5.1000000e-001
 -5.1000000e-001
 -5.1000000e-001
 -4.8000000e-001
 -4.6500000e-001
 -4.8000000e-001
 -4.9000000e-001
 -4.8500000e-001
 -4.9000000e-001
 -4.9500000e-001
 -5.0500000e-001
 -4.8500000e-001
 -4.6500000e-001
 -4.7000000e-001
 -4.7000000e-001
 -4.9000000e-001
 -5.1000000e-001
 -5.0000000e-001
 -4.8000000e-001
 -5.0500000e-001
 -4.8500000e-001
 -4.8000000e-001
 -4.5000000e-001
 -4.4000000e-001
 -4.3000000e-001
 -4.3500000e-001
 -4.1500000e-001
 -3.6500000e-001
 -3.7500000e-001
 -3.6500000e-001
 -3.3000000e-001
 -3.0500000e-001
 -2.7500000e-001
 -2.8000000e-001
 -2.6500000e-001
 -2.5500000e-001
 -2.1000000e-001
 -2.1500000e-001
 -2.3000000e-001
 -2.4500000e-001
 -2.6000000e-001
 -2.6000000e-001
 -2.7000000e-001
 -2.8500000e-001
 -2.8000000e-001
 -3.4500000e-001
 -3.2000000e-001
 -3.3500000e-001
 -3.6500000e-001
 -3.7000000e-001
 -3.9500000e-001
 -4.0000000e-001
 -4.3000000e-001
 -4.4000000e-001
 -5.0500000e-001
 -5.1500000e-001
 -5.1000000e-001
 -5.1500000e-001
 -4.8000000e-001
 -4.8000000e-001
 -5.0500000e-001
 -5.2500000e-001
 -5.1500000e-001
 -5.1500000e-001
 -5.1000000e-001
 -4.9500000e-001
 -5.2000000e-001
 -4.9500000e-001
 -4.7500000e-001
 -4.8500000e-001
 -4.9500000e-001
 -4.9500000e-001
 -5.0000000e-001
 -4.8500000e-001
 -4.9000000e-001
 -4.9500000e-001
 -4.6000000e-001
 -4.4500000e-001
 -4.1500000e-001
 -3.7000000e-001
 -3.2000000e-001
 -2.3500000e-001
 -8.0000000e-002
  9.5000000e-002
  3.3000000e-001
  5.0000000e-001
  6.2500000e-001
  6.8500000e-001
  7.2500000e-001
  6.9500000e-001
  6.2000000e-001
  5.4000000e-001
  4.5500000e-001
  3.7500000e-001
  3.8000000e-001
  3.8500000e-001
  4.2000000e-001
  4.1000000e-001
  3.5000000e-001
  2.5000000e-001
  1.4000000e-001
  8.5000000e-002
  1.5500000e-001
  3.1500000e-001
  4.0500000e-001
  3.8500000e-001
  2.1000000e-001
 -2.0000000e-002
 -2.0500000e-001
 -3.3500000e-001
 -3.9000000e-001
 -4.0500000e-001
 -4.3000000e-001
 -4.5000000e-001
 -5.1000000e-001
 -5.2000000e-001
 -5.5000000e-001
 -5.4500000e-001
 -5.7500000e-001
 -5.5500000e-001
 -5.7500000e-001
 -5.7500000e-001
 -5.5000000e-001
 -5.5000000e-001
 -5.3500000e-001
 -5.3500000e-001
 -5.4000000e-001
 -5.5500000e-001
 -5.3500000e-001
 -5.3500000e-001
 -5.4000000e-001
 -5.3000000e-001
 -5.4500000e-001
 -5.6000000e-001
 -5.8000000e-001
 -5.7000000e-001
 -5.8000000e-001
 -5.8500000e-001
 -5.8500000e-001
 -6.2000000e-001
 -6.0000000e-001
 -6.1500000e-001
 -6.0500000e-001
 -6.1000000e-001
 -6.2500000e-001
 -6.5000000e-001
 -6.5000000e-001
 -6.8000000e-001
 -6.6500000e-001
 -6.8500000e-001
 -6.6500000e-001
 -6.7000000e-001
 -6.7500000e-001
 -6.8000000e-001
 -7.0500000e-001
 -7.1500000e-001
 -7.2500000e-001
 -7.0500000e-001
 -7.2500000e-001
 -7.2000000e-001
 -7.3500000e-001
 -7.3000000e-001
 -7.3000000e-001
 -7.3500000e-001
 -7.5000000e-001
 -7.4500000e-001
 -7.5000000e-001
 -7.4000000e-001
 -7.2500000e-001
 -7.2500000e-001
 -7.2000000e-001
 -6.9000000e-001
 -7.0000000e-001
 -7.0500000e-001
 -7.0500000e-001
 -7.1000000e-001
 -6.9000000e-001
 -6.6500000e-001
 -6.1500000e-001
 -6.1000000e-001
 -5.9500000e-001
 -6.0500000e-001
 -6.1000000e-001
 -6.0500000e-001
 -5.6500000e-001
 -5.4000000e-001
 -5.2000000e-001
 -4.9500000e-001
 -4.8000000e-001
 -4.8000000e-001
 -4.7000000e-001
 -4.6500000e-001
 -4.7500000e-001
 -4.7500000e-001
 -4.6000000e-001
 -4.5000000e-001
 -4.5000000e-001
 -4.3500000e-001
 -4.3000000e-001
 -4.4500000e-001
 -4.6000000e-001
 -4.7000000e-001
 -4.7000000e-001
 -4.7000000e-001
 -4.6000000e-001
 -4.7500000e-001
 -4.5500000e-001
 -4.7500000e-001
 -4.9500000e-001
 -5.0000000e-001
 -5.1500000e-001
 -5.1500000e-001
 -5.2000000e-001
 -5.2000000e-001
 -5.1000000e-001
 -5.0000000e-001
 -4.9000000e-001
 -5.2500000e-001
 -5.3000000e-001
 -5.4500000e-001
 -5.4500000e-001
 -5.3000000e-001
 -5.1000000e-001
 -5.0500000e-001
 -5.2000000e-001
 -5.3000000e-001
 -5.2500000e-001
 -5.3000000e-001
 -5.2500000e-001
 -5.1500000e-001
 -5.3000000e-001
 -5.4000000e-001
 -5.4000000e-001
 -5.4500000e-001
 -5.4000000e-001
 -5.0500000e-001
 -5.2000000e-001
 -5.0500000e-001
 -5.1500000e-001
 -5.0000000e-001
 -5.1000000e-001
 -4.6500000e-001
 -4.7500000e-001
 -5.0000000e-001
 -5.1500000e-001
 -5.2500000e-001
 -5.0500000e-001
 -5.3000000e-001
 -5.1000000e-001
 -5.0000000e-001
 -4.9000000e-001
 -4.6500000e-001
 -4.6000000e-001
 -4.6000000e-001
 -4.5000000e-001
 -4.0000000e-001
 -3.7500000e-001
 -3.5000000e-001
 -3.3500000e-001
 -3.5000000e-001
 -3.3000000e-001
 -3.1500000e-001
 -3.0000000e-001
 -2.7500000e-001
 -2.8500000e-001
 -2.4000000e-001
 -2.4500000e-001
 -2.6500000e-001
 -2.9500000e-001
 -3.2000000e-001
 -3.4500000e-001
 -3.4000000e-001
 -3.4500000e-001
 -3.8500000e-001
 -4.1500000e-001
 -4.2500000e-001
 -4.1500000e-001
 -4.1500000e-001
 -4.5000000e-001
 -4.6500000e-001
 -5.0000000e-001
 -5.2000000e-001
 -5.5000000e-001
 -5.4000000e-001
 -5.4500000e-001
 -5.3500000e-001
 -5.1500000e-001
 -5.3000000e-001
 -5.3000000e-001
 -5.4000000e-001
 -5.5500000e-001
 -5.3500000e-001
 -5.2500000e-001
 -5.3000000e-001
 -5.3000000e-001
 -5.3000000e-001
 -5.1000000e-001
 -5.0500000e-001
 -5.4000000e-001
 -5.5000000e-001
 -5.4000000e-001
 -5.3000000e-001
 -4.9500000e-001
 -4.8000000e-001
 -4.8000000e-001
 -4.5500000e-001
 -4.1000000e-001
 -3.8000000e-001
 -3.2000000e-001
 -2.0000000e-001
 -6.5000000e-002
  1.3500000e-001
  3.7500000e-001
  5.8500000e-001
  7.1500000e-001
  8.0000000e-001
  8.5500000e-001
  8.5500000e-001
  8.0000000e-001
  7.1000000e-001
  6.1000000e-001
  5.3500000e-001
  5.3000000e-001
  5.3000000e-001
  5.2000000e-001
  5.1500000e-001
  4.1000000e-001
  3.1500000e-001
  1.9000000e-001
  1.7000000e-001
  2.4500000e-001
  3.9000000e-001
  4.9500000e-001
  4.5000000e-001
  2.4000000e-001
 -3.0000000e-002
 -2.2000000e-001
 -3.3500000e-001
 -4.0500000e-001
 -3.7500000e-001
 -4.1000000e-001
 -4.5500000e-001
 -5.2500000e-001
 -5.6500000e-001
 -5.7000000e-001
 -5.6000000e-001
 -5.5500000e-001
 -5.7500000e-001
 -5.6500000e-001
 -5.3000000e-001
 -5.4500000e-001
 -5.2000000e-001
 -5.3000000e-001
 -5.4000000e-001
 -5.5000000e-001
 -5.6000000e-001
 -5.8500000e-001
 -5.6500000e-001
 -5.5000000e-001
 -5.5500000e-001
 -5.5500000e-001
 -5.7000000e-001
 -5.4500000e-001
 -5.6500000e-001
 -5.8000000e-001
 -5.9500000e-001
 -6.1000000e-001
 -6.0000000e-001
 -6.0000000e-001
 -6.0500000e-001
 -5.9500000e-001
 -6.0500000e-001
 -6.2500000e-001
 -6.5500000e-001
 -6.6500000e-001
 -6.4000000e-001
 -6.3500000e-001
 -6.3500000e-001
 -6.3000000e-001
 -6.4000000e-001
 -6.7000000e-001
 -7.0500000e-001
 -7.1500000e-001
 -7.0500000e-001
 -7.2000000e-001
 -7.2000000e-001
 -6.9000000e-001
 -7.0000000e-001
 -6.8000000e-001
 -7.0000000e-001
 -7.0000000e-001
 -7.3500000e-001
 -7.3000000e-001
 -7.1000000e-001
 -7.2000000e-001
 -7.0000000e-001
 -6.9500000e-001
 -7.1000000e-001
 -7.1500000e-001
 -7.1500000e-001
 -7.0000000e-001
 -6.8000000e-001
 -6.9500000e-001
 -6.6500000e-001
 -6.4000000e-001
 -6.4000000e-001
 -6.2000000e-001
 -6.2000000e-001
 -6.2500000e-001
 -6.0500000e-001
 -5.6000000e-001
 -5.4000000e-001
 -5.2000000e-001
 -5.0500000e-001
 -4.8000000e-001
 -4.5000000e-001
 -4.4000000e-001
 -4.5000000e-001
 -4.4000000e-001
 -4.3500000e-001
 -4.2500000e-001
 -4.1000000e-001
 -4.0500000e-001
 -3.7000000e-001
 -3.8500000e-001
 -3.8500000e-001
 -4.0000000e-001
 -4.4000000e-001
 -4.5000000e-001
 -4.4000000e-001
 -4.4000000e-001
 -4.4500000e-001
 -4.3000000e-001
 -4.4500000e-001
 -4.6000000e-001
 -4.6500000e-001
 -4.6500000e-001
 -4.7000000e-001
 -4.8000000e-001
 -4.4500000e-001
 -4.6500000e-001
 -4.5500000e-001
 -4.5500000e-001
 -4.6000000e-001
 -4.5000000e-001
 -4.8000000e-001
 -4.9000000e-001
 -4.9000000e-001
 -5.0500000e-001
 -4.9500000e-001
 -4.7500000e-001
 -4.5500000e-001
 -4.5500000e-001
 -4.7500000e-001
 -4.9500000e-001
 -4.9500000e-001
 -5.1000000e-001
 -5.1500000e-001
 -5.0000000e-001
 -4.7500000e-001
 -4.7500000e-001
 -4.7500000e-001
 -4.6000000e-001
 -4.7000000e-001
 -4.7500000e-001
 -4.8500000e-001
 -4.7500000e-001
 -4.8000000e-001
 -4.5000000e-001
 -4.5000000e-001
 -4.5500000e-001
 -4.5500000e-001
 -4.7500000e-001
 -4.7000000e-001
 -4.6500000e-001
 -4.4500000e-001
 -4.5000000e-001
 -4.2500000e-001
 -4.3500000e-001
 -4.2500000e-001
 -4.4000000e-001
 -4.2000000e-001
 -4.3000000e-001
 -4.0000000e-001
 -4.0000000e-001
 -3.5500000e-001
 -3.2000000e-001
 -2.9000000e-001
 -3.0000000e-001
 -2.6500000e-001
 -2.6500000e-001
 -2.4000000e-001
 -2.4500000e-001
 -2.1500000e-001
 -1.7500000e-001
 -1.7000000e-001
 -1.9000000e-001
 -1.9500000e-001
 -2.4500000e-001
 -2.6500000e-001
 -2.7500000e-001
 -2.7500000e-001
 -3.0000000e-001
 -3.1000000e-001
 -3.2000000e-001
 -3.3500000e-001
 -3.5000000e-001
 -3.7500000e-001
 -3.7500000e-001
 -4.0500000e-001
 -4.3500000e-001
 -4.6000000e-001
 -4.6500000e-001
 -4.7000000e-001
 -4.6500000e-001
 -5.0000000e-001
 -5.2000000e-001
 -5.2000000e-001
 -5.1500000e-001
 -5.1500000e-001
 -5.1000000e-001
 -4.9500000e-001
 -5.0000000e-001
 -4.7000000e-001
 -4.8000000e-001
 -4.8500000e-001
 -5.0500000e-001
 -5.0500000e-001
 -5.1500000e-001
 -4.9500000e-001
 -4.8000000e-001
 -4.8000000e-001
 -4.7000000e-001
 -4.5000000e-001
 -4.6000000e-001
 -4.3500000e-001
 -4.1000000e-001
 -3.5500000e-001
 -2.9500000e-001
 -1.9500000e-001
 -8.0000000e-002
  1.3500000e-001
  3.4500000e-001
  5.2500000e-001
  6.2000000e-001
  6.4000000e-001
  6.8000000e-001
  6.6500000e-001
  6.1000000e-001
  5.5000000e-001
  4.9500000e-001
  4.7500000e-001
  4.6500000e-001
  4.8500000e-001
  5.0000000e-001
  4.7500000e-001
  4.4000000e-001
  3.5500000e-001
  2.5500000e-001
  2.0500000e-001
  2.8000000e-001
  4.1000000e-001
  5.1500000e-001
  5.1000000e-001
  3.6500000e-001
  1.3000000e-001
 -1.1000000e-001
 -2.6500000e-001
 -3.3000000e-001
 -3.3000000e-001
 -3.2000000e-001
 -3.7000000e-001
 -4.3000000e-001
 -5.0500000e-001
 -5.2500000e-001
 -5.2000000e-001
 -5.1000000e-001
 -5.1000000e-001
 -5.3000000e-001
 -5.2500000e-001
 -5.2000000e-001
 -5.1500000e-001
 -5.1500000e-001
 -5.2500000e-001
 -5.0000000e-001
 -5.1500000e-001
 -4.9500000e-001
 -4.8500000e-001
 -4.7500000e-001
 -5.0500000e-001
 -5.0500000e-001
 -5.2000000e-001
 -5.3000000e-001
 -5.3500000e-001
 -5.4000000e-001
 -5.2000000e-001
 -5.4500000e-001
 -5.4500000e-001
 -5.4500000e-001
 -5.5500000e-001
 -5.7500000e-001
 -5.8000000e-001
 -6.0500000e-001
 -6.1000000e-001
 -6.2000000e-001
 -5.9000000e-001
 -5.5500000e-001
 -6.0500000e-001
 -6.2500000e-001
 -6.6000000e-001
 -6.8000000e-001
 -6.7500000e-001
 -6.9000000e-001
 -6.7500000e-001
 -6.6000000e-001
 -6.6500000e-001
 -6.7000000e-001
 -6.8500000e-001
 -7.0000000e-001
 -7.0500000e-001
 -7.1000000e-001
 -6.9500000e-001
 -6.8500000e-001
 -6.9000000e-001
 -6.7500000e-001
 -6.6500000e-001
 -6.8500000e-001
 -6.9000000e-001
 -6.8500000e-001
 -6.8000000e-001
 -6.7000000e-001
 -6.5500000e-001
 -6.4000000e-001
 -6.2000000e-001
 -6.1500000e-001
 -6.0000000e-001
 -5.9000000e-001
 -5.8500000e-001
 -5.7500000e-001
 -5.9500000e-001
 -5.6000000e-001
 -5.4500000e-001
 -5.1000000e-001
 -4.9500000e-001
 -4.7000000e-001
 -4.5500000e-001
 -4.5500000e-001
 -4.4500000e-001
 -4.4000000e-001
 -4.3500000e-001
 -4.0500000e-001
 -3.8500000e-001
 -3.9000000e-001
 -3.9500000e-001
 -3.9500000e-001
 -4.0500000e-001
 -4.1500000e-001
 -4.1500000e-001
 -4.2000000e-001
 -4.1500000e-001
 -4.1000000e-001
 -3.9500000e-001
 -4.2500000e-001
 -4.1500000e-001
 -4.2000000e-001
 -4.4000000e-001
 -4.7500000e-001
 -4.5500000e-001
 -4.6000000e-001
 -4.6000000e-001
 -4.7500000e-001
 -4.8000000e-001
 -4.8000000e-001
 -5.0000000e-001
 -4.8000000e-001
 -4.8000000e-001
 -5.0500000e-001
 -4.9000000e-001
 -4.9000000e-001
 -5.0000000e-001
 -4.9500000e-001
 -4.8500000e-001
 -5.0500000e-001
 -5.2000000e-001
 -5.3500000e-001
 -5.2000000e-001
 -5.2000000e-001
 -5.1000000e-001
 -5.2500000e-001
 -5.2000000e-001
 -5.0500000e-001
 -5.1000000e-001
 -5.1500000e-001
 -5.1500000e-001
 -5.2000000e-001
 -5.0000000e-001
 -4.9500000e-001
 -4.8000000e-001
 -4.8500000e-001
 -4.9500000e-001
 -4.8500000e-001
 -4.8000000e-001
 -5.1500000e-001
 -5.1500000e-001
 -5.0000000e-001
 -5.1000000e-001
 -5.0500000e-001
 -4.8500000e-001
 -5.1000000e-001
 -5.2500000e-001
 -5.2000000e-001
 -5.1000000e-001
 -5.1500000e-001
 -5.1000000e-001
 -4.8000000e-001
 -4.8000000e-001
 -4.6500000e-001
 -4.6000000e-001
 -4.3000000e-001
 -4.3000000e-001
 -3.9500000e-001
 -3.8000000e-001
 -3.5000000e-001
 -3.3000000e-001
 -3.1500000e-001
 -3.0500000e-001
 -2.8000000e-001
 -2.8000000e-001
 -2.5500000e-001
 -2.6500000e-001
 -2.9000000e-001
 -3.0500000e-001
 -3.1000000e-001
 -3.3000000e-001
 -3.3000000e-001
 -3.5000000e-001
 -3.9500000e-001
 -4.0500000e-001
 -4.2000000e-001
 -4.4000000e-001
 -4.4000000e-001
 -4.4500000e-001
 -4.7500000e-001
 -4.9500000e-001
 -5.1000000e-001
 -5.5000000e-001
 -5.9000000e-001
 -5.9000000e-001
 -5.8000000e-001
 -5.8500000e-001
 -5.8500000e-001
 -5.8500000e-001
 -5.8500000e-001
 -5.7000000e-001
 -5.8000000e-001
 -5.9000000e-001
 -5.8500000e-001
 -5.8500000e-001
 -5.6500000e-001
 -5.8000000e-001
 -5.7500000e-001
 -5.8000000e-001
 -5.8000000e-001
 -5.7500000e-001
 -5.6500000e-001
 -5.8500000e-001
 -5.6500000e-001
 -5.5000000e-001
 -5.1000000e-001
 -5.0000000e-001
 -4.5000000e-001
 -4.0000000e-001
 -3.2500000e-001
 -1.9000000e-001
  0.0000000e+000
  2.1000000e-001
  3.7000000e-001
  5.1500000e-001
  5.8000000e-001
  5.9500000e-001
  5.9500000e-001
  5.4000000e-001
  4.3500000e-001
  3.3000000e-001
  3.0500000e-001
  2.9500000e-001
  3.3500000e-001
  3.6500000e-001
  3.6000000e-001
  2.7500000e-001
  1.6500000e-001
  7.5000000e-002
  2.5000000e-002
  1.1000000e-001
  2.6000000e-001
  3.3500000e-001
  3.1000000e-001
  1.4000000e-001
 -1.1500000e-001
 -3.1000000e-001
 -4.4500000e-001
 -4.6500000e-001
 -4.6000000e-001
 -5.0000000e-001
 -5.5000000e-001
 -6.0500000e-001
 -6.2500000e-001
 -6.1500000e-001
 -5.9000000e-001
 -6.0500000e-001
 -5.9500000e-001
 -6.0500000e-001
 -6.2000000e-001
 -6.4000000e-001
 -5.9500000e-001
 -6.1000000e-001
 -6.1000000e-001
 -6.0000000e-001
 -6.0500000e-001
 -6.0500000e-001
 -6.2500000e-001
 -6.1000000e-001
 -6.1000000e-001
 -6.2000000e-001
 -6.1500000e-001
 -6.2500000e-001
 -6.2000000e-001
 -6.3000000e-001
 -6.4000000e-001
 -6.4000000e-001
 -6.6500000e-001
 -6.7000000e-001
 -6.5500000e-001
 -6.5500000e-001
 -6.4000000e-001
 -6.7500000e-001
 -6.8000000e-001
 -7.0000000e-001
 -7.1500000e-001
 -7.1500000e-001
 -7.4500000e-001
 -7.4500000e-001
 -7.3500000e-001
 -7.4500000e-001
 -7.4500000e-001
 -7.7500000e-001
 -7.8500000e-001
 -7.6000000e-001
 -7.7000000e-001
 -7.6500000e-001
 -7.8500000e-001
 -7.7000000e-001
 -7.6500000e-001
 -7.9000000e-001
 -7.7500000e-001
 -7.5500000e-001
 -7.8000000e-001
 -7.7000000e-001
 -7.6000000e-001
 -7.5500000e-001
 -7.5500000e-001
 -7.5500000e-001
 -7.4500000e-001
 -7.4000000e-001
 -7.4500000e-001
 -7.4000000e-001
 -7.2500000e-001
 -7.1500000e-001
 -6.8500000e-001
 -6.7000000e-001
 -6.4500000e-001
 -6.5000000e-001
 -6.2500000e-001
 -6.4000000e-001
 -6.2000000e-001
 -6.0000000e-001
 -5.7000000e-001
 -5.4500000e-001
 -5.1500000e-001
 -5.0000000e-001
 -4.9500000e-001
 -4.8000000e-001
 -4.9500000e-001
 -5.0000000e-001
 -4.9000000e-001
 -4.9000000e-001
 -4.8500000e-001
 -4.7500000e-001
 -4.6500000e-001
 -4.6000000e-001
 -4.8000000e-001
 -5.1000000e-001
 -4.9500000e-001
 -5.1500000e-001
 -5.0500000e-001
 -5.1000000e-001
 -5.1000000e-001
 -5.1000000e-001
 -5.1500000e-001
 -5.4500000e-001
 -5.8000000e-001
 -5.6500000e-001
 -5.8000000e-001
 -6.1500000e-001
 -6.5000000e-001
 -7.5500000e-001
 -8.7500000e-001
 -9.8000000e-001
 -1.0350000e+000
 -1.1350000e+000
 -1.2500000e+000
 -1.3450000e+000
 -1.4650000e+000
 -1.5900000e+000
 -1.7100000e+000
 -1.7650000e+000
 -1.8200000e+000
 -1.8800000e+000
 -1.9450000e+000
 -2.0500000e+000
 -2.2000000e+000
 -2.3300000e+000
 -2.4600000e+000
 -2.5150000e+000
 -2.5800000e+000
 -2.6650000e+000
 -2.7550000e+000
 -2.8200000e+000
 -2.8900000e+000
 -2.9700000e+000
 -3.0600000e+000
 -3.1250000e+000
 -3.1700000e+000
 -3.1850000e+000
 -3.2150000e+000
 -3.2350000e+000
 -3.2000000e+000
 -3.1400000e+000
 -3.0350000e+000
 -2.9100000e+000
 -2.7700000e+000
 -2.5600000e+000
 -2.3600000e+000
 -2.2000000e+000
 -2.0750000e+000
 -1.9450000e+000
 -1.7350000e+000
 -1.5100000e+000
 -1.2600000e+000
 -9.8000000e-001
 -6.6500000e-001
 -3.8000000e-001
 -2.1500000e-001
 -8.0000000e-002
  2.5000000e-002
  1.3500000e-001
  2.1500000e-001
  2.9500000e-001
  3.2000000e-001
  3.2500000e-001
  3.4500000e-001
  3.7500000e-001
  3.9500000e-001
  4.2000000e-001
  4.5500000e-001
  4.6500000e-001
  4.9000000e-001
  5.1500000e-001
  5.4000000e-001
  5.5500000e-001
  5.4500000e-001
  5.5500000e-001
  5.5500000e-001
  5.5500000e-001
  5.6500000e-001
  5.9500000e-001
  6.2500000e-001
  6.4500000e-001
  6.9500000e-001
  7.1000000e-001
  7.5000000e-001
  7.7500000e-001
  8.1500000e-001
  8.3500000e-001
  8.7500000e-001
  8.9500000e-001
  9.2500000e-001
  9.5000000e-001
  1.0000000e+000
  1.0450000e+000
  1.0600000e+000
  1.0750000e+000
  1.0850000e+000
  1.0900000e+000
  1.1100000e+000
  1.1450000e+000
  1.1550000e+000
  1.1800000e+000
  1.2050000e+000
  1.2050000e+000
  1.2100000e+000
  1.2200000e+000
  1.2100000e+000
  1.1950000e+000
  1.2200000e+000
  1.2350000e+000
  1.2300000e+000
  1.2200000e+000
  1.2050000e+000
  1.1850000e+000
  1.1750000e+000
  1.1600000e+000
  1.0950000e+000
  1.0650000e+000
  1.0450000e+000
  1.0250000e+000
  1.0000000e+000
  9.7500000e-001
  9.4000000e-001
  8.9000000e-001
  8.4000000e-001
  7.9000000e-001
  7.6000000e-001
  7.1000000e-001
  6.6500000e-001
  6.3500000e-001
  5.7500000e-001
  5.1000000e-001
  4.7000000e-001
  4.2500000e-001
  3.6000000e-001
  3.1500000e-001
  2.6500000e-001
  2.2500000e-001
  1.9000000e-001
  1.5500000e-001
  1.0500000e-001
  4.0000000e-002
 -1.5000000e-002
 -5.0000000e-002
 -9.0000000e-002
 -1.1500000e-001
 -1.3500000e-001
 -1.5000000e-001
 -2.1000000e-001
 -2.4500000e-001
 -2.6500000e-001
 -2.9500000e-001
 -3.3500000e-001
 -3.3500000e-001
 -3.5000000e-001
 -3.4500000e-001
 -3.5000000e-001
 -3.6500000e-001
 -4.0000000e-001
 -4.0000000e-001
 -4.2500000e-001
 -4.5500000e-001
 -4.4500000e-001
 -4.6000000e-001
 -4.7000000e-001
 -4.4500000e-001
 -4.2500000e-001
 -4.4500000e-001
 -4.6000000e-001
 -4.8000000e-001
 -4.8500000e-001
 -4.6000000e-001
 -4.8500000e-001
 -4.8000000e-001
 -4.9000000e-001
 -4.9500000e-001
 -4.8000000e-001
 -4.8500000e-001
 -4.9000000e-001
 -5.0000000e-001
 -5.1000000e-001
 -5.0000000e-001
 -4.9000000e-001
 -4.7500000e-001
 -4.6500000e-001
 -4.8000000e-001
 -4.8000000e-001
 -5.0000000e-001
 -5.0500000e-001
 -4.9000000e-001
 -4.8500000e-001
 -4.7500000e-001
 -4.5000000e-001
 -4.6500000e-001
 -4.8000000e-001
 -4.8000000e-001
 -4.7000000e-001
 -4.8000000e-001
 -4.7000000e-001
 -4.8000000e-001
 -4.8000000e-001
 -4.8000000e-001
 -4.7000000e-001
 -4.6500000e-001
 -4.6500000e-001
 -4.9000000e-001
 -4.7000000e-001
 -5.0500000e-001
 -5.0500000e-001
 -4.8000000e-001
 -4.9000000e-001
 -4.9500000e-001
 -4.9500000e-001
 -4.6500000e-001
 -4.8000000e-001
 -4.9000000e-001
 -4.8500000e-001
 -4.9500000e-001
 -4.9500000e-001
 -4.9000000e-001
 -4.6500000e-001
 -4.6500000e-001
 -4.8000000e-001
 -4.5500000e-001
 -4.7500000e-001
 -4.8500000e-001
 -4.9000000e-001
 -4.8500000e-001
 -4.7500000e-001
 -4.7500000e-001
 -4.5500000e-001
 -4.5500000e-001
 -4.7000000e-001
 -4.9000000e-001
 -4.6500000e-001
 -4.8000000e-001
 -4.8500000e-001
 -4.7500000e-001
 -4.7500000e-001
 -4.6000000e-001
 -4.8000000e-001
 -4.6500000e-001
 -4.7500000e-001
 -4.8500000e-001
 -4.8000000e-001
 -4.9000000e-001
 -4.8000000e-001
 -4.7000000e-001
 -4.7500000e-001
 -4.6500000e-001
 -4.5500000e-001
 -4.5000000e-001
 -4.8500000e-001
 -4.8500000e-001
 -5.0500000e-001
 -5.0500000e-001
 -5.0000000e-001
 -4.8000000e-001
 -4.6000000e-001
 -4.9500000e-001
 -4.8500000e-001
 -4.8000000e-001
 -4.8500000e-001
 -4.9000000e-001
 -4.8500000e-001
 -4.5500000e-001
 -4.7500000e-001
 -4.6500000e-001
 -4.5500000e-001
 -4.5500000e-001
 -4.7500000e-001
 -4.9500000e-001
 -4.8500000e-001
 -4.9000000e-001
 -4.8000000e-001
 -4.5000000e-001
 -4.3000000e-001
 -4.1000000e-001
 -4.0500000e-001
 -3.9500000e-001
 -3.9000000e-001
 -3.8000000e-001
 -3.7000000e-001
 -3.2000000e-001
 -3.1500000e-001
 -2.9500000e-001
 -2.8500000e-001
 -2.6000000e-001
 -2.7000000e-001
 -2.7500000e-001
 -2.7500000e-001
 -3.1500000e-001
 -3.3000000e-001
 -3.2000000e-001
 -3.2000000e-001
 -3.3500000e-001
 -3.4500000e-001
 -3.8500000e-001
 -3.9500000e-001
 -4.1500000e-001
 -4.3000000e-001
 -4.4500000e-001
 -4.4500000e-001
 -4.4000000e-001
 -4.8000000e-001
 -5.2000000e-001
 -5.2500000e-001
 -5.3500000e-001
 -5.4000000e-001
 -5.5000000e-001
 -5.4000000e-001
 -5.5000000e-001
 -5.4000000e-001
 -5.4500000e-001
 -5.3500000e-001
 -5.5000000e-001
 -5.7000000e-001
 -5.6500000e-001
 -5.7000000e-001
 -5.5000000e-001
 -5.3500000e-001
 -5.3500000e-001
 -5.2000000e-001
 -5.2000000e-001
 -5.2500000e-001
 -5.3000000e-001
 -5.2500000e-001
 -5.3500000e-001
 -5.2000000e-001
 -4.7500000e-001
 -3.8000000e-001
 -2.9500000e-001
 -1.6500000e-001
  5.0000000e-003
  1.9500000e-001
  3.2500000e-001
  4.0500000e-001
  4.9500000e-001
  5.3000000e-001
  5.1000000e-001
  4.7500000e-001
  3.8500000e-001
  3.0500000e-001
  3.1000000e-001
  2.9000000e-001
  3.0000000e-001
  3.3500000e-001
  3.0000000e-001
  2.2000000e-001
  1.1000000e-001
  5.0000000e-003
 -4.0000000e-002
  4.5000000e-002
  1.7500000e-001
  2.5500000e-001
  1.6500000e-001
 -2.0000000e-002
 -2.0500000e-001
 -3.6000000e-001
 -4.1500000e-001
 -4.3500000e-001
 -4.3500000e-001
 -4.5500000e-001
 -5.2500000e-001
 -5.7000000e-001
 -6.0000000e-001
 -6.0500000e-001
 -5.7000000e-001
 -5.7500000e-001
 -5.6500000e-001
 -5.7000000e-001
 -5.8500000e-001
 -6.0000000e-001
 -5.9000000e-001
 -6.1000000e-001
 -5.9500000e-001
 -5.8000000e-001
 -5.8000000e-001
 -5.8000000e-001
 -5.8500000e-001
 -6.0500000e-001
 -6.1000000e-001
 -6.1500000e-001
 -6.3000000e-001
 -6.5000000e-001
 -6.1500000e-001
 -6.3000000e-001
 -6.2000000e-001
 -6.5000000e-001
 -6.5500000e-001
 -6.8500000e-001
 -6.9500000e-001
 -7.0500000e-001
 -7.1000000e-001
 -7.0500000e-001
 -6.9000000e-001
 -6.9000000e-001
 -7.1000000e-001
 -7.1500000e-001
 -7.1500000e-001
 -7.3000000e-001
 -7.4000000e-001
 -7.6000000e-001
 -7.4000000e-001
 -7.2000000e-001
 -7.5000000e-001
 -7.5000000e-001
 -7.5000000e-001
 -7.6000000e-001
 -7.5500000e-001
 -7.5500000e-001
 -7.6000000e-001
 -7.5000000e-001
 -7.5000000e-001
 -7.3000000e-001
 -7.5500000e-001
 -7.5500000e-001
 -7.5000000e-001
 -7.6000000e-001
 -7.3500000e-001
 -7.3000000e-001
 -7.2000000e-001
 -7.0500000e-001
 -7.0000000e-001
 -7.0000000e-001
 -6.9500000e-001
 -7.2000000e-001
 -7.0500000e-001
 -6.9500000e-001
 -6.9500000e-001
 -6.8000000e-001
 -6.4000000e-001
 -6.3500000e-001
 -6.0500000e-001
 -5.9500000e-001
 -5.9000000e-001
 -5.9000000e-001
 -5.7500000e-001
 -5.7500000e-001
 -5.6000000e-001
 -5.4500000e-001
 -5.3000000e-001
 -5.2000000e-001
 -5.2500000e-001
 -5.2000000e-001
 -5.1500000e-001
 -5.3000000e-001
 -4.9500000e-001
 -5.2500000e-001
 -4.9500000e-001
 -4.9500000e-001
 -4.9500000e-001
 -5.0000000e-001
 -5.3000000e-001
 -5.2000000e-001
 -5.4500000e-001
 -5.3500000e-001
 -5.2000000e-001
 -5.3000000e-001
 -5.4500000e-001
 -5.2000000e-001
 -5.3000000e-001
 -5.5500000e-001
 -5.6000000e-001
 -5.6000000e-001
 -5.8500000e-001
 -5.7500000e-001
 -5.5500000e-001
 -5.6500000e-001
 -5.7500000e-001
 -5.6500000e-001
 -5.7500000e-001
 -5.8000000e-001
 -5.6500000e-001
 -5.6000000e-001
 -5.7000000e-001
 -5.7000000e-001
 -5.7500000e-001
 -5.7000000e-001
 -5.8000000e-001
 -5.9000000e-001
 -5.6000000e-001
 -5.8000000e-001
 -5.8000000e-001
 -5.5000000e-001
 -5.4000000e-001
 -5.4000000e-001
 -5.3500000e-001
 -5.4000000e-001
 -5.4000000e-001
 -5.5000000e-001
 -5.5000000e-001
 -5.5500000e-001
 -5.3500000e-001
 -5.2000000e-001
 -5.1500000e-001
 -5.3000000e-001
 -5.3000000e-001
 -5.2500000e-001
 -5.4500000e-001
 -5.3500000e-001
 -5.3500000e-001
 -5.3000000e-001
 -5.3000000e-001
 -5.2000000e-001
 -5.3000000e-001
 -5.5000000e-001
 -5.4000000e-001
 -5.3500000e-001
 -5.2500000e-001
 -5.1500000e-001
 -5.0000000e-001
 -4.6000000e-001
 -4.4000000e-001
 -4.3000000e-001
 -4.4000000e-001
 -4.2000000e-001
 -3.9500000e-001
 -3.8500000e-001
 -3.8500000e-001
 -3.5500000e-001
 -3.2500000e-001
 -3.0500000e-001
 -3.0500000e-001
 -3.1000000e-001
 -3.3500000e-001
 -3.7000000e-001
 -3.6000000e-001
 -3.9500000e-001
 -4.0000000e-001
 -3.8500000e-001
 -3.6500000e-001
 -3.9000000e-001
 -4.2000000e-001
 -4.4000000e-001
 -4.7500000e-001
 -4.8500000e-001
 -4.8500000e-001
 -5.0500000e-001
 -5.3000000e-001
 -5.4500000e-001
 -5.4000000e-001
 -5.5000000e-001
 -5.4500000e-001
 -5.4000000e-001
 -5.7500000e-001
 -5.7500000e-001
 -5.7000000e-001
 -5.6500000e-001
 -5.5500000e-001
 -5.4500000e-001
 -5.5000000e-001
 -5.4000000e-001
 -5.6000000e-001
 -5.5500000e-001
 -5.6000000e-001
 -5.5500000e-001
 -5.6000000e-001
 -5.4500000e-001
 -5.5000000e-001
 -5.3500000e-001
 -5.3500000e-001
 -5.4500000e-001
 -5.4000000e-001
 -5.1000000e-001
 -4.7500000e-001
 -4.0500000e-001
 -3.2000000e-001
 -1.6000000e-001
 -5.0000000e-003
  1.4500000e-001
  2.2500000e-001
  2.7500000e-001
  3.1000000e-001
  3.1000000e-001
  2.8500000e-001
  2.0500000e-001
  1.4000000e-001
  1.1000000e-001
  7.5000000e-002
  8.0000000e-002
  1.0000000e-001
  9.5000000e-002
  8.0000000e-002
  3.0000000e-002
 -4.5000000e-002
 -1.1000000e-001
 -9.5000000e-002
  1.0000000e-002
  1.1500000e-001
  1.5500000e-001
  8.0000000e-002
 -9.5000000e-002
 -2.9500000e-001
 -4.1500000e-001
 -4.6000000e-001
 -4.4000000e-001
 -4.7500000e-001
 -5.0500000e-001
 -5.4000000e-001
 -6.0000000e-001
 -6.1000000e-001
 -6.1000000e-001
 -5.9000000e-001
 -6.0000000e-001
 -6.0500000e-001
 -5.8500000e-001
 -5.7500000e-001
 -5.9000000e-001
 -6.0500000e-001
 -6.0000000e-001
 -5.9000000e-001
 -6.0000000e-001
 -5.8500000e-001
 -5.8500000e-001
 -5.7000000e-001
 -5.8000000e-001
 -5.7500000e-001
 -6.1000000e-001
 -6.2000000e-001
 -6.1000000e-001
 -6.0000000e-001
 -6.0500000e-001
 -6.2000000e-001
 -5.9500000e-001
 -6.0000000e-001
 -6.1500000e-001
 -6.4000000e-001
 -6.4000000e-001
 -6.5500000e-001
 -6.5500000e-001
 -6.4500000e-001
 -6.5000000e-001
 -6.3500000e-001
 -6.4500000e-001
 -6.6500000e-001
 -6.5000000e-001
 -6.9000000e-001
 -6.8000000e-001
 -6.9500000e-001
 -6.9000000e-001
 -6.8500000e-001
 -6.9500000e-001
 -6.8500000e-001
 -6.6000000e-001
 -7.0000000e-001
 -7.0500000e-001
 -7.0500000e-001
 -7.1000000e-001
 -6.9500000e-001
 -6.9500000e-001
 -6.8000000e-001
 -6.7500000e-001
 -6.8500000e-001
 -6.9000000e-001
 -6.6000000e-001
 -6.7000000e-001
 -6.7000000e-001
 -6.5500000e-001
 -6.5500000e-001
 -6.6000000e-001
 -6.3500000e-001
 -6.2500000e-001
 -6.1000000e-001
 -6.3500000e-001
 -6.0500000e-001
 -6.2500000e-001
 -6.0000000e-001
 -5.6500000e-001
 -5.5500000e-001
 -5.4000000e-001
 -5.2500000e-001
 -5.2000000e-001
 -5.0500000e-001
 -5.0000000e-001
 -4.9000000e-001
 -4.7500000e-001
 -4.6000000e-001
 -4.5000000e-001
 -4.3000000e-001
 -4.3500000e-001
 -4.5500000e-001
 -4.5500000e-001
 -4.4500000e-001
 -4.5000000e-001
 -4.6000000e-001
 -4.6000000e-001
 -4.6000000e-001
 -4.5000000e-001
 -4.6500000e-001
 -4.8000000e-001
 -4.7000000e-001
 -4.8000000e-001
 -4.8000000e-001
 -4.8000000e-001
 -4.7500000e-001
 -4.7000000e-001
 -4.5500000e-001
 -4.7500000e-001
 -4.8000000e-001
 -4.9500000e-001
 -4.8500000e-001
 -5.0000000e-001
 -4.7500000e-001
 -4.8000000e-001
 -4.7000000e-001
 -4.7500000e-001
 -4.7500000e-001
 -4.8500000e-001
 -4.9000000e-001
 -4.8500000e-001
 -5.2500000e-001
 -4.8500000e-001
 -4.9500000e-001
 -4.7500000e-001
 -4.5500000e-001
 -4.6500000e-001
 -4.7500000e-001
 -4.6000000e-001
 -4.9500000e-001
 -4.8500000e-001
 -4.7000000e-001
 -4.7000000e-001
 -4.6000000e-001
 -4.5500000e-001
 -4.5000000e-001
 -4.5000000e-001
 -4.5000000e-001
 -4.5000000e-001
 -4.5000000e-001
 -4.5500000e-001
 -4.3000000e-001
 -4.3000000e-001
 -4.5500000e-001
 -4.4000000e-001
 -4.3000000e-001
 -4.4500000e-001
 -4.4500000e-001
 -4.6500000e-001
 -4.5000000e-001
 -4.1500000e-001
 -4.0000000e-001
 -3.8000000e-001
 -3.6000000e-001
 -3.5500000e-001
 -3.4000000e-001
 -3.2500000e-001
 -3.1000000e-001
 -3.1000000e-001
 -2.9500000e-001
 -2.6000000e-001
 -2.5500000e-001
 -2.3000000e-001
 -2.4000000e-001
 -2.6500000e-001
 -3.0000000e-001
 -3.2000000e-001
 -3.1500000e-001
 -3.3000000e-001
 -3.2000000e-001
 -3.1500000e-001
 -3.3500000e-001
 -3.6500000e-001
 -3.7500000e-001
 -3.7500000e-001
 -4.0500000e-001
 -4.3500000e-001
 -4.2500000e-001
 -4.3500000e-001
 -4.4000000e-001
 -4.7000000e-001
 -4.6500000e-001
 -4.8000000e-001
 -4.8500000e-001
 -4.7500000e-001
 -4.8000000e-001
 -4.6500000e-001
 -4.6500000e-001
 -4.8000000e-001
 -4.6000000e-001
 -4.8000000e-001
 -4.6500000e-001
 -4.9000000e-001
 -4.7500000e-001
 -4.6500000e-001
 -4.6000000e-001
 -4.5000000e-001
 -4.5000000e-001
 -4.6000000e-001
 -4.4000000e-001
 -4.5500000e-001
 -4.6000000e-001
 -4.6000000e-001
 -4.4000000e-001
 -4.0000000e-001
 -3.5500000e-001
 -2.7000000e-001
 -1.5000000e-001
  5.0000000e-003
  1.6500000e-001
  3.1500000e-001
  4.2500000e-001
  5.0000000e-001
  5.0500000e-001
  5.0000000e-001
  4.4000000e-001
  3.4500000e-001
  2.8500000e-001
  2.5000000e-001
  2.5500000e-001
  2.4500000e-001
  2.5500000e-001
  2.4500000e-001
  2.1500000e-001
  1.3500000e-001
  2.5000000e-002
  5.0000000e-003
  7.0000000e-002
  1.8500000e-001
  2.3000000e-001
  1.6000000e-001
  2.0000000e-002
 -1.6000000e-001
 -3.1000000e-001
 -3.7000000e-001
 -4.0000000e-001
 -3.9500000e-001
 -4.2000000e-001
 -4.7000000e-001
 -5.0000000e-001
 -5.2500000e-001
 -5.3000000e-001
 -5.1000000e-001
 -4.9500000e-001
 -5.0000000e-001
 -4.9500000e-001
 -4.9500000e-001
 -5.0000000e-001
 -5.0000000e-001
 -5.1000000e-001
 -4.9500000e-001
 -4.8500000e-001
 -4.8000000e-001
 -4.7500000e-001
 -4.9500000e-001
 -4.9000000e-001
 -5.0500000e-001
 -5.1500000e-001
 -5.1000000e-001
 -5.3500000e-001
 -5.0500000e-001
 -5.1000000e-001
 -5.0500000e-001
 -5.2500000e-001
 -5.3000000e-001
 -5.4000000e-001
 -5.4000000e-001
 -5.5500000e-001
 -5.3500000e-001
 -5.2500000e-001
 -5.4500000e-001
 -5.5500000e-001
 -5.6000000e-001
 -5.8500000e-001
 -5.8500000e-001
 -5.9000000e-001
 -5.8500000e-001
 -5.7500000e-001
 -5.8500000e-001
 -5.7500000e-001
 -5.8000000e-001
 -6.0000000e-001
 -6.0500000e-001
 -6.0500000e-001
 -6.0500000e-001
 -6.1000000e-001
 -6.1500000e-001
 -6.1500000e-001
 -6.1000000e-001
 -5.8000000e-001
 -5.9000000e-001
 -6.1000000e-001
 -6.0000000e-001
 -6.0000000e-001
 -6.0000000e-001
 -5.9500000e-001
 -5.9000000e-001
 -5.8000000e-001
 -5.8000000e-001
 -5.7000000e-001
 -5.6500000e-001
 -5.8000000e-001
 -5.6000000e-001
 -5.3500000e-001
 -5.2500000e-001
 -5.2500000e-001
 -5.0500000e-001
 -4.8000000e-001
 -4.8000000e-001
 -4.7000000e-001
 -4.6000000e-001
 -4.6500000e-001
 -4.5000000e-001
 -4.3000000e-001
 -4.0000000e-001
 -3.8000000e-001
 -3.7000000e-001
 -3.9000000e-001
 -3.9500000e-001
 -3.8000000e-001
 -3.7500000e-001
 -3.7000000e-001
 -3.7500000e-001
 -3.5000000e-001
 -3.5500000e-001
 -3.5000000e-001
 -3.7000000e-001
 -3.7500000e-001
 -3.8500000e-001
 -3.9000000e-001
 -3.9000000e-001
 -3.8500000e-001
 -3.8000000e-001
 -3.8500000e-001
 -3.9000000e-001
 -3.8500000e-001
 -3.8000000e-001
 -3.8500000e-001
 -3.9000000e-001
 -3.9000000e-001
 -3.8500000e-001
 -3.7500000e-001
 -3.9000000e-001
 -3.9000000e-001
 -3.9000000e-001
 -4.0500000e-001
 -4.1500000e-001
 -3.9500000e-001
 -4.1000000e-001
 -4.0500000e-001
 -3.9500000e-001
 -4.0000000e-001
 -3.8500000e-001
 -3.9500000e-001
 -4.0000000e-001
 -3.9500000e-001
 -4.0000000e-001
 -4.1000000e-001
 -3.9500000e-001
 -3.6500000e-001
 -3.7500000e-001
 -3.8000000e-001
 -3.7000000e-001
 -3.7000000e-001
 -3.9500000e-001
 -3.9500000e-001
 -3.8000000e-001
 -3.9500000e-001
 -3.8000000e-001
 -3.5000000e-001
 -3.7500000e-001
 -3.5000000e-001
 -3.6500000e-001
 -3.6500000e-001
 -3.6500000e-001
 -3.7000000e-001
 -3.4500000e-001
 -3.4500000e-001
 -3.2000000e-001
 -2.6500000e-001
 -2.7500000e-001
 -2.7500000e-001
 -2.6500000e-001
 -2.4500000e-001
 -2.4500000e-001
 -2.1500000e-001
 -1.9000000e-001
 -1.8500000e-001
 -1.6000000e-001
 -1.4000000e-001
 -1.5000000e-001
 -1.8000000e-001
 -2.0500000e-001
 -2.0000000e-001
 -2.0500000e-001
 -2.1000000e-001
 -2.0000000e-001
 -2.3000000e-001
 -2.2500000e-001
 -2.4000000e-001
 -2.7500000e-001
 -2.9500000e-001
 -3.1000000e-001
 -3.0000000e-001
 -3.1500000e-001
 -3.2500000e-001
 -3.2000000e-001
 -3.6000000e-001
 -3.6000000e-001
 -3.8000000e-001
 -3.8500000e-001
 -3.6500000e-001
 -3.6500000e-001
 -3.7000000e-001
 -3.5500000e-001
 -3.5000000e-001
 -3.6500000e-001
 -3.6500000e-001
 -3.6500000e-001
 -3.6000000e-001
 -3.7500000e-001
 -3.7500000e-001
 -3.6500000e-001
 -3.8000000e-001
 -3.6500000e-001
 -3.4500000e-001
 -3.7000000e-001
 -3.5500000e-001
 -3.5500000e-001
 -3.5000000e-001
 -3.3000000e-001
 -2.9500000e-001
 -2.4000000e-001
 -1.7500000e-001
 -7.5000000e-002
  6.5000000e-002
  2.3500000e-001
  3.5000000e-001
  4.3000000e-001
  4.8500000e-001
  5.2500000e-001
  5.0500000e-001
  4.7000000e-001
  3.9500000e-001
  3.2500000e-001
  2.9500000e-001
  2.8500000e-001
  2.9000000e-001
  3.3500000e-001
  3.3500000e-001
  2.8500000e-001
  2.1000000e-001
  1.5000000e-001
  9.5000000e-002
  1.3000000e-001
  2.6000000e-001
  3.3500000e-001
  3.2500000e-001
  2.2000000e-001
  2.5000000e-002
 -1.4500000e-001
 -2.4000000e-001
 -2.8500000e-001
 -3.0000000e-001
 -3.1000000e-001
 -3.5500000e-001
 -4.0500000e-001
 -4.3500000e-001
 -4.3500000e-001
 -4.1500000e-001
 -4.3500000e-001
 -4.4000000e-001
 -4.2000000e-001
 -4.3500000e-001
 -4.4000000e-001
 -4.3000000e-001
 -4.2500000e-001
 -4.3000000e-001
 -4.2000000e-001
 -4.1500000e-001
 -4.0500000e-001
 -4.3500000e-001
 -4.3000000e-001
 -4.5000000e-001
 -4.3000000e-001
 -4.4000000e-001
 -4.3500000e-001
 -4.4000000e-001
 -4.3000000e-001
 -4.2500000e-001
 -4.4500000e-001
 -4.5000000e-001
 -4.8000000e-001
 -4.7500000e-001
 -4.9000000e-001
 -4.8500000e-001
 -4.8500000e-001
 -4.9500000e-001
 -4.9500000e-001
 -5.1500000e-001
 -5.2000000e-001
 -5.0500000e-001
 -5.2000000e-001
 -5.4000000e-001
 -5.2500000e-001
 -5.2000000e-001
 -5.3000000e-001
 -5.4000000e-001
 -5.4000000e-001
 -5.4500000e-001
 -5.5500000e-001
 -5.6000000e-001
 -5.8500000e-001
 -5.5000000e-001
 -5.5500000e-001
 -5.4000000e-001
 -5.4500000e-001
 -5.5500000e-001
 -5.4500000e-001
 -5.6000000e-001
 -5.5000000e-001
 -5.6000000e-001
 -5.4000000e-001
 -5.3000000e-001
 -5.3000000e-001
 -5.2500000e-001
 -5.3500000e-001
 -5.1500000e-001
 -5.1000000e-001
 -5.2000000e-001
 -5.0000000e-001
 -4.7500000e-001
 -4.6500000e-001
 -4.4500000e-001
 -4.3000000e-001
 -4.2500000e-001
 -4.1500000e-001
 -4.1000000e-001
 -4.1500000e-001
 -3.7000000e-001
 -3.5500000e-001
 -3.5000000e-001
 -3.2000000e-001
 -3.0500000e-001
 -3.1000000e-001
 -3.3000000e-001
 -3.3000000e-001
 -3.3500000e-001
 -3.3000000e-001
 -3.2000000e-001
 -3.1500000e-001
 -3.2000000e-001
 -3.1500000e-001
 -3.3500000e-001
 -3.5000000e-001
 -3.7000000e-001
 -3.4000000e-001
 -3.6000000e-001
 -3.6500000e-001
 -3.5000000e-001
 -3.7000000e-001
 -3.5000000e-001
 -3.4500000e-001
 -3.7000000e-001
 -3.8000000e-001
 -3.6500000e-001
 -3.9000000e-001
 -3.8000000e-001
 -3.9500000e-001
 -3.5500000e-001
 -3.6000000e-001
 -3.7500000e-001
 -3.8500000e-001
 -3.7000000e-001
 -3.8500000e-001
 -3.9500000e-001
 -3.8000000e-001
 -3.8500000e-001
 -3.6000000e-001
 -3.8000000e-001
 -3.7500000e-001
 -3.8500000e-001
 -3.8500000e-001
 -3.8000000e-001
 -3.9500000e-001
 -3.9500000e-001
 -3.7000000e-001
 -3.4500000e-001
 -3.5000000e-001
 -3.4500000e-001
 -3.4000000e-001
 -3.6000000e-001
 -3.6000000e-001
 -3.4500000e-001
 -3.6000000e-001
 -3.5000000e-001
 -3.3000000e-001
 -3.2500000e-001
 -3.3000000e-001
 -3.2000000e-001
 -3.1500000e-001
 -3.4500000e-001
 -3.4500000e-001
 -3.0500000e-001
 -3.0500000e-001
 -2.7500000e-001
 -2.5500000e-001
 -2.3500000e-001
 -2.3500000e-001
 -2.2500000e-001
 -2.2500000e-001
 -2.2500000e-001
 -2.0000000e-001
 -1.6000000e-001
 -1.5000000e-001
 -1.2500000e-001
 -1.2000000e-001
 -1.4000000e-001
 -1.6000000e-001
 -1.9000000e-001
 -2.0000000e-001
 -2.0500000e-001
 -1.9500000e-001
 -2.2000000e-001
 -2.3500000e-001
 -2.5000000e-001
 -2.4000000e-001
 -2.7000000e-001
 -2.8000000e-001
 -2.9500000e-001
 -3.0500000e-001
 -3.1500000e-001
 -3.2000000e-001
 -3.4500000e-001
 -3.6000000e-001
 -3.7000000e-001
 -3.7500000e-001
 -3.7500000e-001
 -3.8500000e-001
 -3.9500000e-001
 -3.7500000e-001
 -3.5500000e-001
 -3.3500000e-001
 -3.4000000e-001
 -3.4000000e-001
 -3.4500000e-001
 -3.5500000e-001
 -3.6500000e-001
 -3.6500000e-001
 -3.6000000e-001
 -3.5500000e-001
 -3.3000000e-001
 -3.4500000e-001
 -3.4000000e-001
 -3.4000000e-001
 -3.2500000e-001
 -3.1500000e-001
 -2.9000000e-001
 -2.6500000e-001
 -2.0500000e-001
 -1.1500000e-001
  5.0000000e-003
  1.5500000e-001
  2.9000000e-001
  3.7500000e-001
  4.1000000e-001
  4.1000000e-001
  4.0500000e-001
  3.5500000e-001
  3.3500000e-001
  2.7000000e-001
  2.5000000e-001
  2.3000000e-001
  2.4500000e-001
  2.6500000e-001
  2.6000000e-001
  2.3500000e-001
  2.0000000e-001
  1.0500000e-001
  6.0000000e-002
  6.0000000e-002
  1.6000000e-001
  2.5000000e-001
  2.9500000e-001
  2.0500000e-001
  4.5000000e-002
 -1.3500000e-001
 -2.3500000e-001
 -2.9500000e-001
 -2.9500000e-001
 -2.8500000e-001
 -3.2500000e-001
 -3.8000000e-001
 -4.2500000e-001
 -4.3500000e-001
 -4.5500000e-001
 -4.1500000e-001
 -4.1500000e-001
 -4.3000000e-001
 -4.1000000e-001
 -4.0500000e-001
 -4.1000000e-001
 -4.5500000e-001
 -4.3000000e-001
 -4.4500000e-001
 -4.4000000e-001
 -4.3000000e-001
 -4.4500000e-001
 -4.1000000e-001
 -4.3500000e-001
 -4.4000000e-001
 -4.4000000e-001
 -4.4000000e-001
 -4.5500000e-001
 -4.6500000e-001
 -4.6500000e-001
 -4.4500000e-001
 -4.6000000e-001
 -4.5500000e-001
 -4.8000000e-001
 -4.8000000e-001
 -4.9000000e-001
 -4.7000000e-001
 -5.0000000e-001
 -5.0000000e-001
 -4.9500000e-001
 -5.1500000e-001
 -5.2000000e-001
 -5.4000000e-001
 -5.3000000e-001
 -5.2500000e-001
 -5.3500000e-001
 -5.4000000e-001
 -5.5500000e-001
 -5.4000000e-001
 -5.4500000e-001
 -5.5000000e-001
 -5.5500000e-001
 -5.6500000e-001
 -5.9000000e-001
 -5.6500000e-001
 -5.7000000e-001
 -5.6500000e-001
 -5.4500000e-001
 -5.5500000e-001
 -5.7500000e-001
 -5.6500000e-001
 -5.5500000e-001
 -5.6000000e-001
 -5.5500000e-001
 -5.3000000e-001
 -5.4000000e-001
 -5.3000000e-001
 -5.3500000e-001
 -5.4000000e-001
 -5.5000000e-001
 -5.2500000e-001
 -5.0500000e-001
 -5.1500000e-001
 -4.8500000e-001
 -4.5000000e-001
 -4.4500000e-001
 -4.4500000e-001
 -4.4000000e-001
 -4.1000000e-001
 -4.1500000e-001
 -4.0000000e-001
 -3.9000000e-001
 -3.7500000e-001
 -3.7000000e-001
 -3.6500000e-001
 -3.8500000e-001
 -3.7000000e-001
 -3.7500000e-001
 -3.6500000e-001
 -4.0500000e-001
 -4.0000000e-001
 -3.9500000e-001
 -3.8000000e-001
 -3.8500000e-001
 -3.8500000e-001
 -3.8500000e-001
 -3.8500000e-001
 -3.8500000e-001
 -4.0000000e-001
 -4.2500000e-001
 -4.2500000e-001
 -4.2500000e-001
 -4.1000000e-001
 -4.0500000e-001
 -4.1000000e-001
 -4.2000000e-001
 -4.2500000e-001
 -4.5500000e-001
 -4.6000000e-001
 -4.5500000e-001
 -4.4000000e-001
 -4.4500000e-001
 -4.4500000e-001
 -4.2000000e-001
 -4.3500000e-001
 -4.5500000e-001
 -4.6000000e-001
 -4.5000000e-001
 -4.5000000e-001
 -4.5000000e-001
 -4.5000000e-001
 -4.5000000e-001
 -4.4500000e-001
 -4.3500000e-001
 -4.3500000e-001
 -4.6000000e-001
 -4.6000000e-001
 -4.7000000e-001
 -4.6500000e-001
 -4.5000000e-001
 -4.3000000e-001
 -4.2000000e-001
 -4.4000000e-001
 -4.4500000e-001
 -4.3500000e-001
 -4.4000000e-001
 -4.4500000e-001
 -4.3500000e-001
 -4.4500000e-001
 -4.3500000e-001
